timestamp,emg1,emg2,emg3,emg4,emg5,emg6,emg7,emg8
1461663560153258,-3,-1,-2,-3,-2,0,0,-2
1461663560153258,2,2,3,1,0,0,0,1
1461663560159254,0,-3,-2,-1,-1,-1,-1,-1
1461663560159254,-1,2,10,-1,-2,0,-1,-2
1461663560176255,-2,-8,-24,-3,-2,-2,-1,-2
1461663560176255,-1,5,13,4,1,-1,0,2
1461663560178255,-1,-6,-14,-3,-2,-2,0,-1
1461663560178255,-1,-6,-7,-2,-1,-1,-1,-2
1461663560190276,-4,2,7,1,-2,-1,-2,0
1461663560190276,-2,0,-2,-1,0,1,0,0
1461663560197281,1,1,6,3,1,-2,-2,0
1461663560197281,0,4,14,0,-2,-3,-3,-3
1461663560213329,-3,-5,-6,0,0,1,-1,-1
1461663560213329,2,2,-4,-4,0,0,0,1
1461663560219832,-2,-2,0,-2,0,0,-1,-3
1461663560219832,-2,-3,-8,-1,-1,-3,-2,-2
1461663560236344,0,3,4,-2,0,0,-1,1
1461663560236344,-1,-5,-7,-1,-1,0,0,0
1461663560237834,1,-2,4,-1,-2,0,-1,0
1461663560237834,-3,-1,-10,-2,-3,-1,-3,-3
1461663560249840,-3,-6,-1,-1,-1,0,-1,-1
1461663560249840,-1,-2,-5,-1,1,0,0,1
1461663560258863,-1,0,5,-3,-3,-1,0,0
1461663560258863,-1,3,3,3,0,-3,-2,-2
1461663560272870,-7,-10,-19,-4,-1,-2,-3,-1
1461663560272870,-3,-4,-5,-2,1,-1,1,2
1461663560279882,6,3,6,0,2,1,1,1
1461663560279882,1,2,7,3,-3,-1,-3,-5
1461663560296433,-2,5,-7,-3,-1,-3,-2,-2
1461663560296433,-4,-7,-2,-1,0,-1,0,1
1461663560297889,5,4,3,6,5,2,2,4
1461663560297889,-2,-4,-4,-2,-3,-3,-3,-5
1461663560310383,-3,-4,0,-1,-1,-2,-2,-4
1461663560310383,0,3,0,0,-1,0,0,2
1461663560318891,3,2,2,-1,1,1,2,3
1461663560318891,-2,-6,-5,-5,-6,-1,-1,-5
1461663560332899,-3,0,-2,2,-1,-2,-2,-1
1461663560332899,-2,0,-3,-1,0,-1,0,-1
1461663560339904,2,2,2,0,2,-1,1,1
1461663560339904,-1,-12,-19,-5,-4,-3,-3,-4
1461663560356424,-3,3,9,0,-1,-2,-1,0
1461663560356424,-4,1,3,2,1,-1,0,1
1461663560357917,1,-2,-8,-1,0,0,0,0
1461663560357917,-1,1,5,-3,-3,-2,-2,-3
1461663560369925,-2,-3,-2,-2,-1,-1,-1,-1
1461663560369925,0,-2,-6,0,1,0,-2,1
1461663560378931,1,0,-1,-1,-1,-2,-1,0
1461663560378931,-4,-3,-3,-1,-3,-3,-2,-3
1461663560392942,-1,4,13,-2,-2,-2,-1,-4
1461663560392942,2,1,1,0,0,1,1,1
1461663560399948,2,6,14,1,-1,1,-1,-2
1461663560399948,1,-8,-25,-3,0,-1,-2,-3
1461663560416460,-5,-4,-8,-1,-2,-2,-2,-1
1461663560416460,0,0,0,3,1,-2,-1,1
1461663560417960,-1,-4,-6,0,-3,-1,-2,-1
1461663560417960,0,3,3,-1,1,-1,-2,-2
1461663560429969,0,3,11,-1,-1,-2,0,0
1461663560429969,-2,-4,-5,-1,1,1,0,-1
1461663560438975,0,0,10,0,-1,0,-1,0
1461663560438975,0,1,0,-2,-2,-2,-1,-2
1461663560452999,-3,-3,-5,-2,-1,-1,-1,-1
1461663560452999,0,4,5,-1,0,0,0,0
1461663560460048,1,-4,-9,0,1,0,1,-1
1461663560460048,-6,-5,-5,-3,-1,1,-1,-3
1461663560475500,0,-2,-1,0,0,-2,-2,1
1461663560475500,1,3,4,0,-1,-1,-2,0
1461663560482564,1,-2,-5,-4,0,-2,-1,0
1461663560482564,-1,-2,0,-3,-4,-1,0,0
1461663560490033,0,0,5,1,0,-1,-1,0
1461663560490033,-3,-1,-1,-4,-3,-1,-1,-2
1461663560506041,-1,-1,-9,-2,-1,0,-2,-1
1461663560506041,-1,0,20,1,-2,-1,-2,-2
1461663560513029,0,-7,-13,-4,-2,0,-1,1
1461663560513029,-1,-6,-12,0,-2,-1,1,0
1461663560520034,-4,-5,-8,-3,-3,-1,-2,-2
1461663560520034,0,3,-6,0,0,-3,-1,1
1461663560535059,-1,3,15,2,2,-2,0,-1
1461663560535059,-4,-6,-6,-3,0,1,-1,-1
1461663560542062,-2,-3,4,0,-1,0,0,0
1461663560542062,-3,0,4,-1,-3,0,0,-1
1461663560550113,-3,-3,-5,-1,-2,-1,-1,-2
1461663560550113,0,5,1,-2,0,1,-1,0
1461663560559093,0,-1,-3,1,-2,-2,0,0
1461663560559093,-1,-3,-4,-3,-2,-1,-1,-2
1461663560573071,1,6,6,2,0,0,0,0
1461663560573071,-1,-7,-2,0,-1,-1,-2,-2
1461663560580189,-2,-1,-2,0,-1,0,-2,-3
1461663560580189,-3,0,-1,1,-1,0,0,0
1461663560595195,-1,-1,2,-2,-2,-1,-1,0
1461663560595195,2,2,-3,1,0,-1,0,-1
1461663560602153,-5,-11,-7,-3,0,0,-1,-2
1461663560602153,-1,2,4,-3,-3,-2,-2,-2
1461663560610175,-2,-2,-9,-2,-1,-1,0,-2
1461663560610175,0,1,3,1,0,-1,-1,1
1461663560619153,2,3,6,-4,-1,-2,-1,0
1461663560619153,-2,-4,-8,-3,-3,-1,-1,-2
1461663560633222,-1,0,3,3,3,-1,-1,-2
1461663560633222,-2,8,23,-1,-2,-1,-2,-1
1461663560639180,4,-3,-17,1,2,-1,0,0
1461663560639180,-1,-8,-13,-9,-4,-1,0,-3
1461663560655237,-4,-4,-5,-4,-4,-2,-3,-2
1461663560655237,-1,0,3,-1,-1,-1,0,0
1461663560662248,0,9,18,0,0,-2,-1,-1
1461663560662248,1,-5,-2,1,2,-2,-1,-2
1461663560678225,-1,9,-3,-3,-1,-2,-2,-1
1461663560678225,-2,-2,-4,0,-1,-1,-1,-2
1461663560680226,1,3,-1,-1,0,-1,0,-1
1461663560680226,2,2,-2,1,1,-2,-2,-2
1461663560693224,-4,-11,-7,-3,-3,0,-2,-3
1461663560693224,-1,1,-1,-1,1,0,2,1
1461663560699228,-2,-2,-3,0,-3,0,0,-2
1461663560699228,1,-1,3,1,1,1,0,0
1461663560715240,-1,2,6,2,1,-1,-1,-1
1461663560715240,-4,-6,-13,-5,-2,0,0,-1
1461663560722239,0,-8,-18,-1,1,-1,-1,-1
1461663560722239,0,5,15,4,1,-1,-1,-1
1461663560738296,-6,-10,-3,-5,-4,-1,-1,-1
1461663560738296,0,0,-8,0,-1,-1,-1,-3
1461663560740240,-3,-10,5,1,-1,-2,-1,-3
1461663560740240,-3,-3,-10,0,0,0,-1,-3
1461663560753315,1,-2,1,0,-1,0,-2,0
1461663560753315,-4,-2,3,-2,1,-2,-1,1
1461663560759311,-4,-5,-3,-3,-2,-2,-1,-3
1461663560759311,1,0,2,-1,-1,-1,0,-1
1461663560775276,3,-1,-4,1,0,-2,2,1
1461663560775276,-8,-2,8,-2,-4,-2,-2,-3
1461663560784272,0,6,-6,-3,-2,0,-2,-1
1461663560784272,-5,-3,-2,-3,-3,0,-1,-3
1461663560798306,2,4,10,1,-1,0,-2,-2
1461663560798306,0,-6,-9,-1,1,-2,-1,0
1461663560800282,0,1,-7,-3,-1,-1,-1,0
1461663560800282,-3,0,1,-2,-1,-1,-2,-3
1461663560813306,-2,-2,-9,-4,-3,-1,-1,-1
1461663560813306,3,7,16,2,0,-1,0,1
1461663560819310,-2,-1,0,3,-1,-1,2,-2
1461663560819310,-1,-3,-15,-1,0,-2,1,-2
1461663560835320,1,3,7,-1,-1,-3,-2,0
1461663560835320,-1,0,-5,-2,-1,-1,-1,-2
1461663560842350,0,-3,9,2,-3,-1,-3,-1
1461663560842350,-5,-8,-17,-2,-2,-3,-2,-1
1461663560857321,-4,-8,-1,-4,-1,-1,-1,-2
1461663560857321,7,2,-6,-3,-3,0,1,0
1461663560866342,0,7,-5,-4,-4,-2,-1,-2
1461663560866342,-2,-1,16,3,-1,-1,-1,-2
1461663560872349,-5,-10,-6,-1,-1,1,-1,1
1461663560872349,3,6,4,-2,-1,-1,-1,0
1461663560879376,-2,2,7,-3,-1,-1,-1,-1
1461663560879376,3,0,-6,0,-1,-2,-2,-1
1461663560895407,-1,4,-3,-2,-1,1,-1,0
1461663560895407,-4,-9,1,4,1,1,-1,-1
1461663560902379,-1,4,4,-4,-5,-2,0,-3
1461663560902379,1,8,15,1,1,0,-1,0
1461663560918372,1,-1,-8,-4,-1,-1,-1,0
1461663560918372,5,0,0,-7,-3,-2,-1,1
1461663560920372,-7,-10,-9,3,-4,-3,-2,-4
1461663560920372,4,5,-7,7,6,1,0,1
1461663560933401,-3,1,13,4,1,-1,-1,-2
1461663560933401,-1,2,-4,-2,-1,0,0,0
1461663560940385,0,-3,-8,-15,-8,-3,-2,-2
1461663560940385,-4,-5,7,7,-4,-1,-2,0
1461663560955397,4,9,5,16,18,5,1,2
1461663560955397,1,3,-14,-1,-1,-1,-1,0
1461663560962397,0,-5,2,-1,4,2,0,0
1461663560962397,-2,-5,-11,-10,-7,-2,-2,-2
1461663560978410,-2,3,11,-9,-8,-3,-1,-1
1461663560978410,0,-2,-8,7,3,0,-2,0
1461663560980411,0,6,13,6,2,0,-2,-1
1461663560980411,-6,-15,-12,-8,-3,-2,-1,0
1461663560992416,2,4,-1,-2,-4,-2,-2,-1
1461663560992416,0,-4,-1,-2,-3,-2,-1,0
1461663560999425,-2,1,0,-7,-5,-1,-1,-2
1461663560999425,2,-4,-6,-5,-1,-1,-2,-2
1461663561015437,-6,-12,3,7,2,-1,-1,-1
1461663561015437,1,4,-1,-7,-2,-1,-1,1
1461663561022438,5,8,7,10,1,-3,-1,0
1461663561022438,-9,-17,-18,-15,-5,-1,-3,-5
1461663561038449,3,3,-5,8,4,3,5,1
1461663561038449,-2,1,0,0,-5,1,-1,-2
1461663561040452,1,2,11,4,10,3,2,0
1461663561040452,2,15,11,-3,-4,-5,-6,0
1461663561052468,-2,-6,-2,2,-1,0,-2,-1
1461663561052468,-7,-10,-6,3,1,-2,0,-2
1461663561061498,0,-4,-12,-22,-15,-4,-1,-4
1461663561061498,1,9,16,25,14,4,3,0
1461663561075499,-2,2,-6,-10,-4,-1,-1,1
1461663561075499,-2,-2,-1,-2,-3,-2,-1,1
1461663561082511,-2,-8,-9,-3,-3,-3,-4,-5
1461663561082511,-4,2,5,-5,-1,-1,0,-2
1461663561098494,-2,3,-7,-4,-5,-2,-3,2
1461663561098494,-4,-1,4,-6,1,1,0,-1
1461663561100495,-2,0,-4,3,1,1,5,-3
1461663561100495,-1,1,1,0,-1,0,2,-3
1461663561112522,0,5,5,-1,-1,-3,-5,1
1461663561112522,-2,-4,-3,-5,-6,-6,-6,-1
1461663561119527,1,-6,-5,1,0,-2,-5,-2
1461663561119527,4,12,3,9,4,1,2,-1
1461663561135523,-4,-6,-17,-21,-12,-2,0,-1
1461663561135523,1,2,11,12,3,1,-1,1
1461663561142525,5,12,14,34,16,3,0,-1
1461663561142525,1,-16,-23,-29,-8,-4,-1,-3
1461663561158549,-7,-3,2,7,-8,-6,-5,-4
1461663561158549,1,8,0,9,11,5,5,2
1461663561160551,-4,-15,-12,-13,-5,-1,0,-5
1461663561160551,0,4,-6,-6,-4,-2,-2,-2
1461663561172544,3,1,3,1,2,2,6,2
1461663561172544,1,-10,2,1,-4,-1,-1,1
1461663561181550,-5,11,1,-7,-6,-2,-2,-5
1461663561181550,0,3,1,-2,0,4,10,0
1461663561195560,-6,-10,-8,-10,-2,4,6,2
1461663561195560,1,2,12,4,-1,-1,-17,-1
1461663561202566,4,-5,-4,7,0,-13,-14,-1
1461663561202566,-4,2,-2,-6,-7,-13,-11,-3
1461663561218577,-1,-6,-6,-4,-3,-6,-9,2
1461663561218577,-4,10,-10,-21,-8,3,15,-5
1461663561220578,0,-9,12,-5,-11,3,-8,-4
1461663561220578,-8,-14,-18,31,25,8,7,-2
1461663561232586,-1,15,16,-15,-14,-6,3,-2
1461663561232586,0,-15,-14,16,19,6,-6,3
1461663561255602,16,19,-5,-2,2,2,5,0
1461663561255602,-6,-12,26,26,-3,6,15,1
1461663561256603,-1,-31,-26,11,18,16,13,-1
1461663561256603,1,14,8,-10,-8,-5,-3,-2
1461663561262609,14,27,0,0,-1,-11,-11,-1
1461663561262609,-1,-36,2,-10,-8,-15,-38,2
1461663561278620,-3,-11,-1,-5,-9,3,12,-1
1461663561278620,-20,-53,-4,-8,-3,7,32,-5
1461663561279661,-13,-1,-14,-25,-16,-16,-50,-13
1461663561279661,0,-5,-8,-7,-7,-21,-34,-5
1461663561292654,10,22,-2,-21,-7,-14,-35,-2
1461663561292654,7,-6,-1,14,7,3,16,4
1461663561301637,-10,-12,-2,3,-1,29,69,8
1461663561301637,-5,11,3,-13,-6,14,20,0
1461663561315644,10,9,15,9,12,7,21,11
1461663561315644,-3,-17,-37,-34,-17,-31,-60,-9
1461663561322665,20,58,12,-3,9,-11,-6,7
1461663561322665,-2,2,4,11,-8,-8,-27,-11
1461663561338661,-12,-15,-6,4,-1,12,40,-8
1461663561338661,3,26,4,-3,2,12,-5,-3
1461663561340662,-16,-51,-6,23,15,2,30,-4
1461663561340662,-8,14,10,1,0,0,6,7
1461663561352671,-4,15,2,1,6,-3,-27,-6
1461663561352671,13,-3,-11,-52,-24,-8,0,3
1461663561360676,2,20,27,22,-6,-5,-23,0
1461663561360676,6,1,-9,-21,9,4,-5,-7
1461663561375687,-3,2,6,4,-12,0,38,0
1461663561375687,-7,-7,-1,-29,-7,2,9,4
1461663561382711,11,3,-19,34,23,5,2,17
1461663561382711,-3,-7,8,41,8,0,4,7
1461663561398764,-21,32,1,25,16,-17,-54,-18
1461663561398764,-10,10,28,18,2,2,9,-8
1461663561400724,8,-16,-14,-35,-13,5,10,-5
1461663561400724,-4,7,-16,-25,-11,4,23,3
1461663561420733,5,1,-2,-8,-9,2,-10,3
1461663561420733,5,35,17,37,9,-2,17,9
1461663561422735,-4,-20,-3,-9,0,2,-20,-9
1461663561422735,10,-5,-1,-40,-12,13,37,6
1461663561435744,-5,-39,-5,6,4,6,-10,2
1461663561435744,0,6,-5,28,-1,-31,-44,-1
1461663561442736,-5,-22,-12,1,-1,-10,-11,-5
1461663561442736,-11,-23,-4,-63,-27,11,71,0
1461663561457813,20,-20,25,48,39,29,-8,1
1461663561457813,-12,-5,1,16,-9,-36,-48,-16
1461663561464818,24,29,9,42,4,-28,-72,2
1461663561464818,-14,0,-8,4,-1,-9,-17,-4
1461663561471777,-7,-9,-19,-43,-27,14,52,12
1461663561471777,-5,68,10,4,27,31,11,-5
1461663561481785,-18,98,-7,-34,-23,-17,7,-17
1461663561481785,11,61,0,0,12,5,10,11
1461663561495794,-11,-65,4,-27,-26,-3,27,5
1461663561495794,13,-25,-22,20,27,5,-11,-3
1461663561501792,-32,-64,3,-16,-16,-4,-19,-13
1461663561501792,10,-11,11,28,16,4,-39,-20
1461663561517788,-3,-16,13,-2,-1,0,40,5
1461663561517788,-7,-80,-10,-15,-14,-5,9,14
1461663561524793,17,-26,14,24,9,9,26,24
1461663561524793,-16,-23,-11,-13,-3,-8,-40,-11
1461663561531828,-8,5,6,19,0,-19,-40,-14
1461663561531828,-8,-3,-19,-54,-20,30,75,9
1461663561541835,34,30,45,60,34,27,57,4
1461663561541835,-12,-46,-21,43,18,-23,-98,-3
1461663561563837,-11,82,-9,-20,-24,-45,-54,-14
1461663561563837,20,-5,4,-16,0,8,55,3
1461663561564838,7,46,5,-29,-26,14,14,20
1461663561564838,7,-71,-9,49,39,-7,-14,-5
1461663561577832,-27,-64,-10,-33,-11,-24,-55,-20
1461663561577832,-11,-36,6,59,12,1,0,-1
1461663561584836,-27,-128,-29,-72,-21,22,44,-1
1461663561584836,27,39,-24,-22,-7,24,75,20
1461663561600905,15,113,47,35,19,-5,-51,-17
1461663561600905,-13,69,-43,6,-2,-18,1,3
1461663561602862,8,119,4,-18,2,0,-12,-1
1461663561602862,11,123,19,-16,-18,13,73,8
1461663561615905,-16,120,-41,-6,17,10,-32,5
1461663561615905,24,115,44,8,0,6,-4,6
1461663561621874,-22,-17,-14,24,3,-17,6,-9
1461663561621874,-22,-30,4,-58,-40,-9,31,1
1461663561637885,29,-63,-28,6,10,-10,-45,-6
1461663561637885,4,-46,14,1,-9,-36,-104,-29
1461663561644877,-21,-91,20,-10,17,-5,-16,-11
1461663561644877,-15,-41,0,14,0,28,100,16
1461663561661038,14,-45,-10,-2,16,39,53,20
1461663561661038,-7,-24,5,-33,-31,-21,-60,-14
1461663561663038,22,-42,-21,-7,-3,-8,7,15
1461663561663038,8,-5,7,32,35,58,79,18
1461663561675002,-10,7,10,76,47,32,-14,-2
1461663561675002,9,-15,-15,-5,-11,-51,-82,-17
1461663561682054,-2,-28,-26,-34,-46,-34,-22,-9
1461663561682054,13,13,12,-9,-3,-13,-11,7
1461663561698065,-46,4,6,-15,-20,2,24,-8
1461663561698065,2,5,-3,-58,-12,28,63,-15
1461663561705070,-9,-21,-33,-47,2,30,36,8
1461663561705070,56,6,29,108,24,-18,-89,12
1461663561721023,-40,13,17,18,-11,-57,-64,-30
1461663561721023,12,5,12,-21,-12,1,15,11
1461663561723025,-22,-18,4,-63,-4,37,63,23
1461663561723025,-7,-2,-20,-21,12,0,-59,-10
1461663561735031,1,11,-27,-13,-16,-51,-69,-44
1461663561735031,-29,1,53,46,6,12,27,3
1461663561750055,33,-15,-59,-66,-16,-4,6,15
1461663561750055,-3,4,35,-12,13,-1,9,12
1461663561758070,-28,1,45,56,17,9,28,-13
1461663561758070,-22,8,-64,52,43,38,79,20
1461663561765067,24,-20,-32,-24,-29,6,-67,14
1461663561765067,10,7,43,37,21,-23,-51,-34
1461663561781084,29,14,-14,-99,-28,-6,-28,-14
1461663561781084,-12,16,-3,94,46,12,18,8
1461663561783085,41,-46,38,28,-9,-22,-7,48
1461663561783085,-19,9,-33,-21,-4,-7,-13,-17
1461663561795134,-66,19,-7,-74,-28,7,111,-17
1461663561795134,-41,9,13,-86,-47,-6,12,-16
1461663561802080,61,-35,16,91,43,-8,-128,31
1461663561802080,-67,2,-28,-81,-63,-47,-51,-28
1461663561818105,-36,13,61,96,70,44,8,-56
1461663561818105,-6,7,-5,-49,-19,41,48,21
1461663561832160,45,-37,-2,1,-11,-67,20,36
1461663561832160,73,7,43,-73,-50,-11,-18,19
1461663561841106,-49,16,-118,-87,-16,-7,-12,-41
1461663561841106,55,4,32,100,56,18,74,34
1461663561843121,-15,-19,12,-52,-32,2,-51,-27
1461663561843121,13,0,-9,33,29,28,61,16
1461663561855176,-47,12,-37,17,-27,-19,-64,-35
1461663561855176,-28,1,-30,-32,12,-31,-83,-14
1461663561862185,60,-30,49,83,35,1,48,52
1461663561862185,-6,19,2,-47,3,23,28,-22
1461663561878162,-5,10,70,13,-24,31,95,17
1461663561878162,-79,-4,-63,-59,-15,-31,-36,-26
1461663561885168,7,-13,-2,5,3,25,13,42
1461663561885168,-24,2,-34,-63,-53,-50,-40,-24
1461663561901168,-3,14,5,67,49,1,-8,5
1461663561901168,-99,3,-7,-97,-52,0,-46,-45
1461663561903154,18,-15,17,96,47,20,72,45
1461663561903154,13,2,-15,-58,-16,-6,-52,-45
1461663561915178,-13,6,-28,34,22,-22,-11,-32
1461663561915178,60,-2,27,-12,-13,-17,0,0
1461663561922177,-9,-10,-6,20,22,28,28,0
1461663561922177,23,7,-25,-48,6,16,8,8
1461663561939190,70,4,-18,20,-9,17,7,23
1461663561939190,-32,-1,7,67,28,-10,-31,19
1461663561945220,-29,-21,-14,-114,-30,-16,-47,-15
1461663561945220,37,4,6,112,37,1,39,29
1461663561960242,-34,4,0,-99,-23,-12,-6,-30
1461663561960242,13,-8,-8,91,36,31,6,4
1461663561977216,-54,7,-38,-33,-49,-48,-92,-42
1461663561977216,-55,-13,-25,-23,-38,-39,-55,-18
1461663561978225,-6,9,35,-7,15,-4,-4,20
1461663561978225,79,6,36,14,26,21,39,23
1461663561984229,36,-1,-8,-8,-1,-7,24,1
1461663561984229,-110,-5,-7,-5,5,17,-10,-40
1461663561998277,50,1,38,-73,-51,29,101,31
1461663561998277,43,-17,-67,-22,5,-15,-76,10
1461663562005239,-9,-4,43,81,27,6,-38,-21
1461663562005239,7,7,-5,-42,-55,-1,10,-19
1461663562021242,-8,-4,40,97,78,33,41,20
1461663562021242,33,-10,12,-72,-9,-18,0,17
1461663562022244,37,-7,-26,-63,5,26,79,41
1461663562022244,-28,-7,-15,0,20,18,-29,-29
1461663562035253,25,0,-8,-24,-55,-51,-13,13
1461663562035253,-37,1,13,4,-16,-10,-52,-19
1461663562044253,-108,-11,-22,-4,-4,-19,-45,-46
1461663562044253,127,5,34,12,1,13,40,61
1461663562058278,-48,2,-28,-72,-34,-36,-107,-50
1461663562058278,-2,-14,-5,8,-14,-35,-22,7
1461663562064282,37,-4,-47,-73,-40,6,13,-1
1461663562064282,-105,0,48,86,53,34,61,-9
1461663562081317,24,5,14,27,35,21,19,-14
1461663562081317,-6,-14,1,-108,-58,5,24,16
1461663562082318,10,1,44,122,56,-4,-19,-14
1461663562082318,-71,2,21,86,40,11,5,-11
1461663562094327,41,-9,-30,-98,-21,3,25,3
1461663562094327,-65,-6,47,-7,8,3,4,-13
1461663562103350,59,0,-15,-77,-25,8,43,23
1461663562103350,-28,8,-73,24,11,21,8,18
1461663562118357,-75,1,8,38,5,-21,-44,-18
1461663562118357,99,-4,-1,-12,-34,-7,41,67
1461663562124362,-21,13,-3,-11,1,-18,-72,-82
1461663562124362,-60,0,14,-17,-2,-5,-28,-11
1461663562141387,-91,0,-52,-47,-34,-36,-57,-31
1461663562141387,59,-14,8,1,-34,-39,-14,-4
1461663562142392,42,6,-32,-76,-6,46,102,41
1461663562142392,5,-1,20,77,81,55,32,5
1461663562154441,2,-1,14,-12,-16,-32,-45,6
1461663562154441,62,-12,-24,-48,-13,9,7,0
1461663562163422,22,-3,29,59,30,-15,9,15
1461663562163422,8,3,49,-9,-14,8,3,-5
1461663562178406,3,-4,-52,10,35,36,36,3
1461663562178406,29,-14,25,80,40,3,4,-7
1461663562184411,-42,2,-37,-128,-62,-4,-2,-14
1461663562184411,36,3,-22,25,4,-14,-9,19
1461663562201416,-23,6,16,56,22,15,31,12
1461663562201416,26,-15,-13,-23,-5,29,-33,-21
1461663562203417,16,-2,4,31,-9,-44,-44,11
1461663562203417,-32,2,31,-24,-5,14,38,-3
1461663562215444,125,15,-21,-36,-34,-42,0,31
1461663562215444,-113,-10,-30,-5,-12,-18,-56,-31
1461663562223431,34,-7,21,39,-3,-3,-20,-13
1461663562223431,0,5,-47,-128,-65,-22,6,4
1461663562237471,-12,0,47,93,85,32,4,-18
1461663562237471,-28,-7,-12,-39,17,26,51,19
1461663562244505,-62,1,16,41,6,-2,-18,-8
1461663562244505,49,1,-18,-120,-57,-27,-12,-1
1461663562261518,-12,-2,-8,69,82,45,52,15
1461663562261518,58,-12,30,9,12,9,4,11
1461663562262474,-33,-3,-40,-41,-13,-4,10,8
1461663562262474,-13,8,1,-22,-24,-13,-7,-40
1461663562274479,60,-4,-15,-33,-30,1,36,31
1461663562274479,-128,2,-3,42,12,12,-23,26
1461663562283506,31,6,6,14,-7,-22,-63,-27
1461663562283506,-54,7,20,17,-1,-39,-77,-30
1461663562298514,79,-7,9,-37,-32,-12,23,13
1461663562298514,-50,-9,11,37,6,27,63,-2
1461663562304518,45,0,-9,-29,-14,14,32,5
1461663562304518,7,-1,9,15,19,-32,-63,-13
1461663562321516,-65,-3,7,-38,-26,2,-1,4
1461663562321516,36,-9,-14,-2,24,23,37,-1
1461663562322501,-8,6,-4,-5,14,8,14,3
1461663562322501,7,-2,25,110,62,16,23,-8
1461663562334511,-32,-2,26,0,-14,11,2,-3
1461663562334511,24,-7,-2,-23,-15,-11,1,-2
1461663562343517,-2,0,23,44,42,12,-6,5
1461663562343517,-17,5,-14,-24,-18,-23,6,6
1461663562357538,20,4,-18,-55,-28,35,39,10
1461663562357538,-74,-12,3,20,-16,-40,-55,-30
1461663562366544,27,0,-8,2,-3,-7,16,25
1461663562366544,-49,-3,-17,11,-13,-58,-61,-14
1461663562380555,-19,-5,7,-11,-14,32,1,-9
1461663562380555,36,-7,-13,-19,-3,11,53,23
1461663562387548,19,4,13,6,2,20,-4,-5
1461663562387548,-2,-1,-8,-11,-25,-13,2,-5
1461663562394559,-47,-1,-18,-46,-17,-12,-6,5
1461663562394559,27,-5,4,9,16,0,-4,2
1461663562403559,-18,4,29,33,26,3,5,-2
1461663562403559,5,4,-10,-11,-2,6,11,-3
1461663562417607,-23,-4,-43,-59,-26,-26,-31,-15
1461663562417607,44,-8,28,76,32,6,-10,-4
1461663562424585,-8,3,12,5,-10,1,16,14
1461663562424585,10,-5,-15,-1,-4,16,22,-8
1461663562440596,-42,2,11,17,0,-3,-15,0
1461663562440596,49,-2,-18,-49,-18,8,11,-6
1461663562447650,-62,3,-20,-26,-34,-28,-22,-1
1461663562447650,9,-1,1,9,9,-11,-25,5
1461663562454653,-25,-4,9,26,-1,-24,-30,-6
1461663562454653,57,-6,11,-14,-1,-3,47,26
1461663562463605,5,6,-1,5,5,26,-19,-19
1461663562463605,-17,5,-5,-4,-1,29,13,5
1461663562477669,0,-3,-6,-6,-15,-10,1,2
1461663562477669,-19,-13,12,-6,1,-11,-9,-12
1461663562484620,10,3,-26,-34,-2,7,21,-6
1461663562484620,-16,1,36,48,31,4,6,2
1461663562500686,-2,0,1,19,16,7,-3,-4
1461663562500686,11,-13,-8,7,0,-3,-12,5
1461663562507699,-9,4,-4,2,-23,-8,-4,-13
1461663562507699,22,1,-10,-86,-30,-2,-8,-4
1461663562514696,15,-99,16,-26,18,0,1,4
1461663562514696,1,-73,2,15,18,10,1,15
1461663562523734,-52,-63,-7,47,13,-16,0,-22
1461663562523734,-15,4,-7,22,-14,-4,-11,-1
1461663562537755,-10,57,10,20,-15,-23,-20,6
1461663562537755,-3,127,-13,-34,-14,9,31,5
1461663562544766,37,127,4,-4,-7,-31,-65,-46
1461663562544766,-21,69,3,1,5,22,-3,29
1461663562560822,15,31,-13,-42,-11,15,23,33
1461663562560822,27,73,13,11,-15,-12,-14,-33
1461663562567904,-16,87,0,36,35,26,46,-22
1461663562567904,-3,-47,-2,-11,-4,-18,5,14
1461663562583930,-16,-58,5,26,18,-1,-4,28
1461663562583930,8,29,-12,-24,-5,4,-8,-7
1461663562584902,12,94,7,6,21,3,5,-17
1461663562584902,-12,-3,-9,14,10,-3,-4,-8
1461663562597912,-9,-35,10,16,-6,2,2,9
1461663562597912,4,26,-17,-25,-26,-4,-17,-13
1461663562604918,-10,29,2,-13,-10,-7,-14,-19
1461663562604918,18,-83,-4,0,8,-5,9,20
1461663562620945,-15,-128,2,4,-1,-7,4,18
1461663562620945,-21,-114,-7,-3,-1,16,22,-1
1461663562626949,-42,2,7,-10,-11,-22,-33,-27
1461663562626949,4,-12,-6,-6,-12,-8,-18,14
1461663562644002,27,40,2,-5,-3,9,-3,9
1461663562644002,12,74,-9,8,8,-8,-3,-22
1461663562646003,-23,61,-13,-50,-28,11,31,-13
1461663562646003,-4,36,1,8,-4,-2,14,10
1461663562657986,32,35,9,12,15,2,3,15
1461663562657986,6,31,8,24,23,10,-6,-6
1461663562664959,-21,27,0,15,-4,8,8,-14
1461663562664959,2,20,-17,-6,3,-7,-5,1
1461663562679986,25,-4,-1,11,-1,3,1,18
1461663562679986,-4,-3,9,-12,-15,-8,-16,-10
1461663562686973,-31,-12,-23,-29,-12,-6,-7,-16
1461663562686973,6,-25,2,9,5,-5,3,7
1461663562704028,17,-11,-4,11,3,12,1,12
1461663562704028,-10,14,-3,-1,-1,0,-8,-12
1461663562704987,-24,-17,7,0,-2,-10,-2,-9
1461663562704987,14,76,2,-7,-1,9,4,14
1461663562717053,34,44,2,5,3,-3,7,15
1461663562717053,-18,11,0,-10,-6,-17,-17,-20
1461663562726001,-30,-47,3,3,5,30,8,-9
1461663562726001,12,-76,-6,-3,-4,-4,15,20
1461663562740022,22,-10,0,-3,0,-12,-7,9
1461663562740022,-3,-40,14,5,-3,-6,-3,-14
1461663562749046,-27,-28,10,10,8,-2,0,-7
1461663562749046,6,-13,-14,-2,2,6,2,8
1461663562764057,24,7,1,4,-5,-2,-2,6
1461663562764057,-12,-1,-14,-6,-6,-7,-9,-14
1461663562765029,-25,14,6,0,-1,-1,-2,-13
1461663562765029,9,28,11,-21,-3,3,0,5
1461663562777096,21,8,2,20,10,3,0,9
1461663562777096,-10,9,-13,-6,-4,-6,-9,-12
1461663562786044,-19,19,9,6,-1,-2,-3,-9
1461663562786044,9,3,2,-1,-3,3,2,6
1461663562801081,17,10,9,0,1,-2,-3,4
1461663562801081,-8,-20,-7,-4,0,-1,-5,-6
1461663562807064,-15,-12,-6,-2,-1,0,1,-3
1461663562807064,5,-3,5,-1,-1,-1,0,5
1461663562824071,10,-6,-7,-1,-2,-4,-2,2
1461663562824071,-7,-9,-7,-3,-5,-3,-3,-6
1461663562825072,-15,-12,-11,-5,-2,0,1,-1
1461663562825072,6,-5,7,5,2,2,2,4
1461663562837104,10,-5,-3,-3,-4,-4,-1,-1
1461663562837104,-6,6,-3,-6,-3,-2,-3,-3
1461663562846091,-14,0,4,2,1,-2,0,-1
1461663562846091,5,-8,2,3,-1,0,-2,1
1461663562862109,9,-5,-3,-4,-3,-1,0,-1
1461663562862109,-5,-9,-5,-3,-4,-1,-4,-2
1461663562867114,-11,-13,16,8,4,-1,1,-3
1461663562867114,4,-5,-26,-2,-1,0,0,-1
1461663562884165,9,-2,4,-7,-6,0,-1,0
1461663562884165,-6,16,0,-2,-2,-2,-2,-2
1461663562885114,-15,6,-6,0,-2,-2,-3,-3
1461663562885114,4,3,8,0,-1,-1,-1,2
1461663562897183,10,4,-4,1,-1,-3,-1,2
1461663562897183,-4,1,1,-4,-1,1,1,-3
1461663562906128,-10,-3,-3,-1,-1,-3,-1,-1
1461663562906128,3,-2,-1,-2,-2,0,0,0
1461663562921161,6,2,0,-2,-1,-2,0,0
1461663562921161,-5,4,3,1,-3,-2,-3,-2
1461663562927164,-8,-7,-5,-6,1,0,0,-1
1461663562927164,4,-2,1,2,1,2,-1,0
1461663562943169,3,-3,0,0,-2,0,-2,-1
1461663562943169,-5,-14,-4,-1,-1,-3,-5,-3
1461663562945170,-6,-2,-3,-1,-3,-2,0,-2
1461663562945170,1,-5,4,2,1,-2,-1,0
1461663562958225,5,-5,-2,-2,-1,-1,0,-1
1461663562958225,-2,-3,-1,-2,0,-1,-1,-2
1461663562965233,-4,6,0,-2,-4,0,0,1
1461663562965233,0,0,3,0,0,-1,-1,0
1461663562980241,4,-3,2,0,0,0,-1,0
1461663562980241,-5,0,-2,-1,-1,-2,-2,-3
1461663562987187,-3,3,-5,-4,-2,-1,-1,-1
1461663562987187,1,-4,-2,0,-1,0,-1,1
1461663563003256,1,-2,-6,-2,-1,-1,-2,-1
1461663563003256,0,2,2,-5,-2,-1,-1,-3
1461663563005198,-3,2,16,1,2,-1,0,-1
1461663563005198,1,-1,-20,1,1,-1,-1,1
1461663563018210,2,-3,5,5,-1,1,-1,0
1461663563018210,-5,-6,-9,-11,-6,-3,-2,-3
1461663563025224,-4,-1,-4,-1,0,-1,-1,-1
1461663563025224,1,-2,6,-1,-2,-1,0,0
1461663563040237,3,2,-2,-2,1,-1,1,0
1461663563040237,-1,0,-3,-1,-4,-2,-1,-3
1461663563047243,-7,-2,-3,-2,-2,0,-1,-2
1461663563047243,-1,-1,6,2,0,0,-1,-1
1461663563063297,1,-4,-6,-2,-2,-2,-1,-1
1461663563063297,-3,-2,4,3,2,0,0,-1
1461663563065243,-3,-4,-3,1,1,-2,-2,-1
1461663563065243,-2,-2,2,0,-2,0,-1,-1
1461663563077263,2,1,-2,-4,-1,-1,-1,1
1461663563077263,0,-1,1,2,0,1,0,-1
1461663563086255,-4,-1,-1,-1,-2,-1,-2,0
1461663563086255,-1,-1,0,-4,-2,-1,0,0
1461663563100325,0,-2,-4,-8,-2,1,0,-1
1461663563100325,0,-2,-1,-1,-2,-4,-2,0
1461663563107329,-3,0,5,23,6,2,-1,-1
1461663563107329,0,-2,3,0,1,2,1,-1
1461663563123296,1,0,-1,3,0,-1,-2,-1
1461663563123296,-2,-2,-5,-6,-4,0,0,-1
1461663563125285,-3,-1,-4,-14,-6,-3,0,0
1461663563125285,1,0,0,1,-2,-3,-1,-1
1461663563137305,2,0,-1,3,0,0,0,-1
1461663563137305,0,-2,-5,-3,-2,-2,-1,-1
1461663563146299,-5,-1,2,2,0,-1,0,-1
1461663563146299,-1,1,1,-1,-1,-2,0,1
1461663563160367,1,-2,-3,0,-3,-1,-1,-1
1461663563160367,-2,-5,-1,0,0,-1,-2,-2
1461663563167371,-2,-2,-4,-5,-2,0,-1,0
1461663563167371,-1,-1,3,1,-1,-1,-1,1
1461663563183356,1,-1,1,1,1,-1,-1,-1
1461663563183356,1,1,-1,0,-1,-1,-1,-2
1461663563185333,-4,-3,-4,-5,-3,0,-1,-1
1461663563185333,-1,-5,-1,-3,-3,-1,-2,0
1461663563197363,3,1,3,8,5,0,0,1
1461663563197363,-2,-4,-1,-2,-2,-2,-3,-2
1461663563206342,-2,0,0,0,0,-1,0,0
1461663563206342,0,0,-3,-7,-4,0,1,-1
1461663563220370,0,-5,2,-1,-2,-1,0,-2
1461663563220370,1,-2,4,8,4,-1,1,-1
1461663563227375,-2,-1,0,2,1,-2,-1,0
1461663563227375,-2,-1,1,-3,-5,-2,-2,0
1461663563243386,0,-4,-11,-8,-4,-2,-2,-2
1461663563243386,-4,1,1,3,-1,-1,-1,-3
1461663563245368,-5,-1,-2,-2,-1,-1,-1,1
1461663563245368,-1,-1,1,2,-1,-1,0,1
1461663563257413,1,-2,-6,-7,-4,-2,-1,-1
1461663563257413,-1,-2,-4,-2,-2,-2,-3,-3
1461663563266389,-3,-1,-3,-4,-1,-1,-1,-3
1461663563266389,0,-1,0,2,2,0,-1,0
1461663563280412,0,0,2,0,1,1,-1,1
1461663563280412,-1,-3,-3,-3,0,-1,-1,-3
1461663563287400,-2,-1,-1,-4,-3,-2,-1,-1
1461663563287400,-1,-2,-2,1,1,-1,-2,0
1461663563303411,1,-1,3,5,1,0,-1,0
1461663563303411,0,-3,-3,-4,-1,-2,-3,-4
1461663563305417,-2,1,-1,-4,-1,-3,-1,1
1461663563305417,-1,0,-7,-29,-11,-2,-2,-2
1461663563317448,0,-2,7,29,9,1,0,0
1461663563317448,-1,-1,4,5,-1,-2,-1,0
1461663563326427,-3,0,-7,-1,-1,-1,-1,-2
1461663563326427,-3,-4,1,4,-1,-1,-1,-1
1461663563340441,1,2,-3,-17,-4,0,0,0
1461663563340441,-1,-2,-5,1,-3,-2,-2,-1
1461663563347446,-3,0,4,4,3,-1,-1,1
1461663563347446,1,-1,-3,-3,1,0,-1,1
1461663563363453,-2,-2,-3,-7,-3,-1,0,-1
1461663563363453,-2,-3,0,0,-2,0,0,-2
1461663563369458,-3,1,-2,-7,-4,-1,0,-1
1461663563369458,1,2,4,10,3,-1,-1,-1
1461663563386467,1,-1,1,0,0,-3,-1,-2
1461663563386467,-1,-1,-4,-3,0,-2,-2,-1
1461663563387468,-3,0,1,-1,-3,-1,-2,-1
1461663563387468,-1,-2,-1,5,4,1,3,1
1461663563400476,0,0,-2,-2,1,-1,-1,-2
1461663563400476,0,-1,-3,-7,-5,-2,-1,-3
1461663563407481,-2,-2,0,-1,0,-1,-1,1
1461663563407481,0,1,6,17,7,1,2,1
1461663563422492,3,1,-2,-4,-1,-1,1,0
1461663563422492,0,0,-2,-3,-2,-1,-1,-3
1461663563429497,-2,0,0,0,0,-1,-1,-1
1461663563429497,-1,-1,-2,-8,-4,-1,-2,-1
1461663563446511,0,-2,1,4,0,-2,-1,-2
1461663563446511,-1,0,2,9,3,1,1,0
1461663563447510,-2,-2,0,1,2,1,0,-1
1461663563447510,2,0,-4,-5,-2,-2,0,0
1461663563467525,1,-2,-3,-6,-3,-1,-1,-2
1461663563467525,-3,-2,-3,-5,-3,-1,-1,-3
1461663563476563,-2,-1,-4,-2,-3,0,-1,-3
1461663563476563,0,-2,-1,-1,1,0,0,1
1461663563483603,1,-2,0,-1,-2,-1,-1,-1
1461663563483603,-2,-3,-1,3,1,0,-1,-2
1461663563489545,-3,-2,0,-3,-2,-2,0,0
1461663563489545,-1,-1,-1,-1,-1,0,-1,-1
1461663563506593,0,1,-3,-4,-3,-2,0,-1
1461663563506593,-2,-3,-1,-2,-1,-1,-3,-1
1461663563507557,-2,1,3,6,5,1,1,1
1461663563507557,-2,0,1,5,1,1,0,1
1461663563520594,2,0,-3,-4,-2,-2,-1,0
1461663563520594,-1,0,-4,-8,-4,-2,-2,0
1461663563527598,0,0,-2,-2,-1,-2,-1,-2
1461663563527598,0,-1,-2,-6,-2,-2,-2,-3
1461663563543580,3,0,3,16,7,3,-1,1
1461663563543580,-1,-2,1,-1,0,-2,-1,-1
1461663563557589,-2,-3,0,2,1,1,0,-1
1461663563557589,-1,1,0,0,0,0,0,0
1461663563566596,0,-2,-4,-10,-6,-2,-1,-3
1461663563566596,-1,-1,-4,-7,-4,-2,-3,-3
1461663563567597,-2,0,-1,-2,-3,-1,-1,1
1461663563567597,-2,-2,-1,-4,-1,-2,-2,-3
1461663563580605,-1,-1,-3,-1,-1,-2,-1,-2
1461663563580605,-1,-1,-1,3,-1,-1,1,-3
1461663563587610,-4,-5,-2,-3,-1,-1,-2,0
1461663563587610,1,1,0,2,0,1,0,2
1461663563610627,1,-1,-2,-6,-4,0,-2,-2
1461663563610627,-2,-2,-3,-8,-6,-3,-2,-2
1461663563612628,-3,-1,-1,4,3,1,-1,1
1461663563612628,1,-1,0,1,1,0,-1,0
1461663563625695,2,0,-1,-3,-1,0,0,-1
1461663563625695,-4,-3,0,5,1,-2,-3,-2
1461663563627640,-3,0,0,-2,-1,-1,0,0
1461663563627640,-1,1,-1,1,1,-1,0,0
1461663563640655,0,0,-3,-3,-2,-1,0,-2
1461663563640655,-2,-1,0,-5,-3,-1,-3,-2
1461663563647730,-2,0,1,0,-1,-3,0,-2
1461663563647730,2,-1,-4,1,-1,0,-1,-1
1461663563662733,0,-2,0,-1,-2,-1,-1,-2
1461663563662733,-2,-1,-6,-5,-2,-1,-2,-3
1461663563669692,-3,-2,2,9,1,0,-1,-2
1461663563669692,2,0,1,-1,-1,0,1,1
1461663563686705,1,-3,-1,-2,1,-1,0,-2
1461663563686705,-1,0,1,1,0,-1,-1,-2
1461663563687681,-2,0,-1,-3,-1,-1,-3,-1
1461663563687681,-2,-1,-3,-6,-3,-2,-1,-2
1461663563700692,2,-4,-7,-6,-4,-2,-1,-1
1461663563700692,2,2,3,9,2,0,0,-1
1461663563707696,-3,-2,-2,-6,-4,-2,0,-1
1461663563707696,2,1,2,6,3,0,0,2
1461663563722706,-1,0,3,6,-1,-2,-3,-2
1461663563722706,0,-3,-7,-8,-4,-1,-3,-2
1461663563729714,-2,0,-1,-4,-4,-1,-1,1
1461663563729714,0,-2,0,4,1,-2,-1,0
1461663563745722,2,1,0,-3,0,-1,-2,-2
1461663563745722,0,0,-1,-5,-3,-3,-1,-2
1461663563753727,-4,-3,-3,-1,0,1,-1,0
1461663563753727,-1,-1,-3,-5,-1,-1,-1,-1
1461663563760735,0,0,1,0,-1,0,1,-1
1461663563760735,-3,-4,-1,-1,-1,-2,-1,0
1461663563767737,-1,1,-1,-1,-1,-2,0,1
1461663563767737,-1,-4,-2,-2,-2,-2,-1,0
1461663563782806,1,-3,-1,-1,-2,-1,-2,0
1461663563782806,-3,-1,0,-1,-2,-1,-2,0
1461663563789764,-3,-1,-1,-1,0,-2,-1,-1
1461663563789764,-1,0,0,0,0,-2,0,0
1461663563805823,0,-1,2,-1,0,-2,-2,-2
1461663563805823,-3,-2,-3,-3,0,-1,-1,-1
1461663563807765,-1,0,3,5,0,0,0,1
1461663563807765,0,-1,0,-3,-2,-2,-1,-1
1461663563820804,2,-1,-6,-8,-4,-1,-1,-2
1461663563820804,-3,-4,-2,-1,-5,-2,-2,-2
1461663563827801,0,0,1,-1,1,0,-1,0
1461663563827801,-1,-2,-3,-4,-1,-1,0,-1
1461663563842808,0,0,9,4,2,1,0,-1
1461663563842808,-2,-3,-6,2,0,-1,-1,-2
1461663563849814,-3,0,-2,0,-1,0,-1,0
1461663563849814,2,-1,0,0,-1,0,1,-1
1461663563865824,1,-2,-6,-3,-4,-1,-3,-2
1461663563865824,0,-2,0,-3,-2,-2,-1,-1
1461663563867826,-1,-2,-3,-2,-2,-2,-2,1
1461663563867826,0,1,0,1,3,2,-1,0
1461663563880831,1,0,1,-1,-2,-2,0,-1
1461663563880831,-4,-3,0,2,1,0,0,-1
1461663563887838,-3,1,-3,-5,-3,-1,-1,0
1461663563887838,-1,-1,0,0,-2,-2,0,0
1461663563902892,2,-2,-2,0,-2,0,-2,-2
1461663563902892,0,2,0,-1,-1,-2,0,-1
1461663563917859,-3,0,-6,-13,-2,-1,-2,-1
1461663563917859,-3,-3,9,19,3,-1,-3,-2
1461663563925848,2,1,-1,4,4,1,0,1
1461663563925848,-2,-2,-2,-4,-2,-2,-3,-1
1461663563927854,1,3,1,-1,-2,-2,-1,0
1461663563927854,0,-2,-4,0,0,-1,0,0
1461663563940866,-1,-2,-5,-3,-3,-1,-2,-2
1461663563940866,-2,-1,2,0,-2,-1,-3,-1
1461663563946869,0,-2,-8,-10,-4,-2,1,-2
1461663563946869,2,3,6,0,-1,-1,1,0
1461663563962877,0,-3,0,-1,0,-2,-1,-2
1461663563962877,2,1,2,1,0,-1,-2,0
1461663563969883,-2,-1,1,2,-1,0,-1,0
1461663563969883,1,1,0,-5,-2,0,0,-2
1461663563985894,-1,-5,-7,-5,-2,-2,-1,-4
1461663563985894,-2,0,-3,-7,-5,-1,-1,-1
1461663563987896,-3,-4,2,4,2,-3,-1,0
1461663563987896,-1,-2,-4,-1,0,0,-1,-1
1461663563999905,-1,-1,0,0,-3,-2,0,-1
1461663563999905,-4,0,-1,2,1,1,-2,-3
1461663564008908,1,1,2,2,0,0,0,0
1461663564008908,-2,-1,-5,-3,-4,-2,-2,-2
1461663564030930,-1,-3,-1,-7,-3,-2,-1,-4
1461663564030930,-3,-2,0,6,1,0,0,0
1461663564032926,-3,2,1,2,2,-1,-1,0
1461663564032926,1,-1,-1,-5,-3,2,-2,0
1461663564045935,1,-2,-1,1,-3,-2,-2,-3
1461663564045935,0,1,0,2,1,-1,0,-1
1461663564047936,-1,-2,1,0,-2,-2,0,1
1461663564047936,1,-1,-2,0,1,0,0,1
1461663564059944,2,-1,-2,-2,-2,-2,-2,-2
1461663564059944,-4,-3,-4,-9,-4,-2,-1,-1
1461663564068951,-2,-2,-1,2,0,-2,-1,0
1461663564068951,-1,-2,0,0,-1,-2,-2,-1
1461663564083960,0,2,0,2,0,0,-2,0
1461663564083960,-3,0,-2,-1,-1,-1,0,-2
1461663564089967,-3,-1,-1,-1,-1,0,-1,0
1461663564089967,2,1,-2,-5,0,-2,1,-1
1461663564105048,-1,-3,-3,1,0,-1,-2,-2
1461663564105048,-3,-1,-1,-1,-1,-2,-3,0
1461663564114028,-1,1,0,-1,-2,-1,-1,0
1461663564114028,2,-1,-2,-2,-1,0,0,-1
1461663564120081,0,-2,-2,-1,-3,-2,-1,-2
1461663564120081,-4,1,-3,-5,-3,-1,-2,0
1461663564129099,-4,-2,-2,0,0,-1,-1,0
1461663564129099,1,0,-1,-4,-3,0,-1,0
1461663564143125,1,-3,2,8,0,-1,-1,-2
1461663564143125,-1,-1,-4,-11,-4,0,-2,-2
1461663564150130,-1,0,7,16,5,1,1,-1
1461663564150130,1,0,-3,-2,-3,-1,-2,-1
1461663564166142,0,-5,-1,-2,1,-1,-3,-1
1461663564166142,-3,-2,-2,-1,0,-1,-2,-2
1461663564168144,-3,-2,-1,-4,-1,-2,-1,0
1461663564168144,1,0,-1,-4,-3,-1,-1,-2
1461663564180141,0,0,-2,-5,-2,-2,-1,-1
1461663564180141,-3,-2,-1,4,1,-2,-3,0
1461663564189161,-2,-1,0,-3,-1,-1,-1,-1
1461663564189161,0,-2,1,3,2,-1,0,0
1461663564203138,-1,0,-3,-9,-4,-2,0,-2
1461663564203138,-1,-1,-1,-1,-4,-1,-2,-2
1461663564210203,0,1,1,1,0,2,0,0
1461663564210203,-1,-1,-3,-1,-1,-2,0,-1
1461663564226171,-1,-3,-1,-2,-3,-2,0,0
1461663564226171,-2,-3,-2,0,2,1,-1,0
1461663564228171,0,1,-2,-7,-2,-1,-1,1
1461663564228171,-1,-1,2,2,0,-1,-2,-1
1461663564240193,0,0,0,6,2,0,-1,-2
1461663564240193,-4,-2,-1,1,-1,-2,0,0
1461663564249179,-2,-2,-3,-3,-4,0,-1,0
1461663564249179,0,0,1,1,0,0,-1,0
1461663564263197,0,-2,-4,-7,-3,-3,-1,-2
1461663564263197,-3,0,0,7,1,0,-1,0
1461663564270202,-2,-2,-4,-7,-2,-2,-1,-2
1461663564270202,2,1,1,2,1,0,-1,0
1461663564285196,0,-2,1,0,-2,-1,-2,-4
1461663564285196,-3,-4,0,2,2,-1,-1,-1
1461663564292240,-1,0,-3,-7,0,-2,0,0
1461663564292240,0,-4,-5,-10,-6,-3,-1,-3
1461663564300243,0,1,0,9,3,0,0,-1
1461663564300243,-4,-2,-1,-5,-1,-3,-2,-2
1461663564309212,-2,-2,0,4,1,-2,-1,-1
1461663564309212,3,0,-6,-10,-2,1,-2,1
1461663564323230,2,-1,2,4,-4,-2,-2,0
1461663564323230,-3,-1,-1,-1,-2,-2,-1,-2
1461663564330257,-1,0,-1,1,0,0,0,-1
1461663564330257,1,-1,-1,-1,-1,-2,0,-1
1461663564345268,-1,-2,-4,-5,-4,-1,-3,-4
1461663564345268,-3,2,1,2,0,0,0,-1
1461663564352259,-4,-1,0,-1,0,-2,-1,0
1461663564352259,0,1,-1,3,0,-2,0,-2
1461663564360262,1,-1,-2,-7,-1,-2,-1,-1
1461663564360262,-2,-1,-1,-1,0,-1,-2,-2
1461663564369256,-1,-1,2,1,0,-1,0,-1
1461663564369256,-1,-2,-2,-1,0,-1,0,-1
1461663564383282,-3,-4,-4,-1,-1,-1,-1,-3
1461663564383282,-4,-2,-1,-4,-2,-3,-1,0
1461663564389287,0,0,-3,5,0,0,0,2
1461663564389287,0,-1,5,5,1,-2,-2,-3
1461663564404293,-1,0,-4,-7,-3,0,-3,-2
1461663564404293,-2,-1,-1,-2,-4,-2,-2,-2
1461663564412325,-1,1,1,-1,-3,-1,-2,-1
1461663564412325,3,-2,-3,3,1,1,-1,0
1461663564428309,1,3,0,-8,-5,-1,-1,-1
1461663564428309,-2,-4,-8,-2,-3,-1,-1,-1
1461663564429307,-1,1,2,5,3,1,-2,1
1461663564429307,0,1,-2,-6,-2,-1,-1,0
1461663564444309,-1,-2,4,9,4,0,-1,-2
1461663564444309,-4,0,0,-6,-3,-1,-2,-2
1461663564450333,-2,-1,-3,-4,-3,-1,0,-1
1461663564450333,-1,0,0,-1,-1,-2,0,0
1461663564465344,-2,-3,-4,-4,-1,-3,-1,-1
1461663564465344,-4,-2,1,-1,-2,-1,-1,-1
1461663564472347,-1,-3,-1,-4,0,0,-1,-1
1461663564472347,3,0,2,7,2,0,0,1
1461663564488359,-1,-1,0,2,-1,-1,-1,-2
1461663564488359,0,0,0,-1,0,0,0,1
1461663564489359,-1,-1,0,-1,-3,-3,1,1
1461663564489359,1,-2,-5,-4,-2,-1,-1,-2
1461663564504351,-1,-2,-1,-1,-3,-2,-2,-3
1461663564504351,-2,0,0,2,0,0,-2,1
1461663564510371,-2,1,1,0,0,0,0,-1
1461663564510371,1,0,0,0,-2,0,-1,-1
1461663564533435,-3,-5,-2,-6,-1,-2,-2,-2
1461663564533435,-2,1,2,2,0,-2,0,-3
1461663564533435,-1,-2,0,-2,-3,-3,-2,-1
1461663564533435,1,0,2,5,0,1,-1,-2
1461663564548421,4,1,-5,-3,-2,-1,0,1
1461663564548421,-3,-4,-1,-3,0,-1,0,-1
1461663564548421,0,-1,1,5,4,1,0,1
1461663564548421,0,-2,-2,-4,-3,-1,-1,0
1461663564563457,-1,-1,-2,0,-3,0,-1,-2
1461663564563457,-2,0,-4,-9,-3,1,-1,0
1461663564569397,-1,0,3,5,-1,0,-2,0
1461663564569397,-1,-2,0,1,0,-2,0,-1
1461663564584466,-4,-4,-1,1,0,-2,-2,-3
1461663564584466,-3,0,1,2,1,-1,0,0
1461663564592472,-2,-3,-2,-4,-2,-1,0,-1
1461663564592472,2,0,-1,-2,0,1,-1,-2
1461663564608454,-3,-4,-5,-10,-5,-1,-2,-3
1461663564608454,-1,-2,-2,-1,-2,-3,0,-2
1461663564608454,2,0,0,4,0,-1,-1,2
1461663564608454,0,-3,-2,-4,-1,-1,-2,1
1461663564623434,1,-3,0,1,-1,0,-1,-2
1461663564623434,-4,-1,0,2,1,0,-1,-1
1461663564629498,-2,0,-2,-4,-2,-1,-2,1
1461663564629498,1,0,3,4,3,-1,0,-1
1461663564644450,1,-1,1,-7,-4,-2,-3,-2
1461663564644450,-3,-3,-5,2,-1,-1,-1,0
1461663564652468,1,1,-2,-2,2,0,-1,-2
1461663564652468,-2,-3,2,5,0,-2,0,-1
1461663564667478,-2,-3,-1,2,-2,-2,-1,-1
1461663564667478,-4,-2,2,-2,0,-2,-2,-1
1461663564668467,-3,-2,-2,-3,-1,-1,-1,-1
1461663564668467,2,4,2,0,-1,0,-1,-2
1461663564683539,-1,0,1,7,1,0,-1,0
1461663564683539,-2,5,1,1,0,0,-1,0
1461663564689543,0,-3,-3,2,2,0,0,0
1461663564689543,2,0,-4,-10,-4,-1,-2,-1
1461663564704600,2,-1,0,-3,-3,-1,-1,0
1461663564704600,-4,0,-3,0,-1,-1,-1,0
1461663564712550,-1,-1,1,-2,-2,-2,-1,-3
1461663564712550,0,-2,-2,0,-1,0,-1,-1
1461663564727559,0,-1,-4,-10,-5,-2,-1,-1
1461663564727559,0,-1,1,-3,-4,-3,-1,-1
1461663564728559,-1,3,3,6,5,1,0,0
1461663564728559,-2,-2,3,6,1,-1,-2,-1
1461663564743622,-2,-2,-7,-6,0,-2,-1,-3
1461663564743622,-2,-1,-4,-8,-2,-1,-1,1
1461663564749654,-1,-1,-5,-10,-10,-4,-2,0
1461663564749654,2,0,3,21,13,3,1,0
1461663564764665,-2,0,0,4,1,-1,-2,-2
1461663564764665,-2,0,-1,-1,-1,-2,-2,-1
1461663564772657,2,-1,-4,-4,0,0,0,2
1461663564772657,-3,-4,-6,-13,-6,-1,-1,-2
1461663564787655,1,1,4,7,-1,-2,-1,-3
1461663564787655,4,7,0,0,1,1,1,2
1461663564788652,-3,-5,-2,0,0,-2,0,-1
1461663564788652,-3,-6,-4,-7,-4,-3,0,-1
1461663564803662,-4,-9,-2,1,1,0,-1,-3
1461663564803662,-6,-5,-3,-7,-3,-3,-3,-3
1461663564809667,2,2,-1,0,0,-1,0,-1
1461663564809667,2,0,3,3,-3,-2,0,0
1461663564824693,-2,0,0,-14,-6,-3,-3,-3
1461663564824693,-2,-1,2,5,0,0,-1,0
1461663564832699,-1,0,-2,3,7,1,0,0
1461663564832699,1,-3,0,-7,-4,-1,-1,-2
1461663564847753,-3,-2,-6,-5,-3,1,0,-1
1461663564847753,-5,-2,-1,-7,-3,-1,-3,-2
1461663564848712,0,0,7,10,2,0,0,-1
1461663564848712,6,2,-1,-6,-4,-3,0,1
1461663564864816,-3,-4,-6,-11,-5,-2,-6,-2
1461663564864816,-4,-1,-3,-9,-5,-1,3,-3
1461663564869802,-2,-4,2,14,5,2,1,-1
1461663564869802,1,2,0,3,-1,0,-3,1
1461663564884844,1,-1,0,4,1,0,4,1
1461663564884844,2,3,-4,-7,-2,-4,-4,1
1461663564892853,-5,-7,-4,-12,-5,-3,-5,-2
1461663564892853,2,4,-3,-8,-5,0,-1,-2
1461663564907831,-4,-10,-5,0,-2,-3,-9,-4
1461663564907831,-6,-8,-2,11,3,0,1,0
1461663564908860,4,12,6,-4,-3,-2,-5,-2
1461663564908860,-1,-2,-2,-1,-1,-2,-2,-1
1461663564923841,0,2,-1,-6,-3,-1,2,-2
1461663564923841,0,0,-5,-8,-3,0,1,0
1461663564929864,-3,-3,4,11,2,1,2,2
1461663564929864,0,0,-4,-11,-2,-1,-1,-1
1461663564944877,-1,0,8,5,-3,-3,0,-5
1461663564944877,-1,-1,1,6,4,0,-5,0
1461663564951862,1,0,-1,-16,-9,0,9,0
1461663564951862,-8,-6,-13,-27,-11,7,20,1
1461663564967930,7,7,5,40,21,5,-13,6
1461663564967930,-5,-3,3,0,-5,-15,-22,-7
1461663564968873,-2,-9,-8,-3,-3,-3,-3,-3
1461663564968873,-2,3,1,-2,0,-2,-3,2
1461663564983916,-6,-3,-11,-28,-18,-9,-7,-8
1461663564983916,-1,8,3,26,6,1,3,-2
1461663564989950,-7,-2,2,-14,-8,-5,3,2
1461663564989950,5,6,-1,7,14,8,12,1
1461663565004927,-7,-1,4,-7,-1,4,14,1
1461663565004927,3,-2,-18,-34,-4,-1,-17,-1
1461663565011932,-13,-14,5,8,-10,-5,-7,-5
1461663565011932,4,5,19,34,11,1,-5,-2
1461663565027943,0,-18,10,21,6,0,-3,-2
1461663565027943,2,7,4,-5,1,11,24,5
1461663565028917,6,6,-16,-5,3,6,25,8
1461663565028917,-3,-4,-5,-20,-17,-13,-31,-6
1461663565050935,5,4,-15,-14,-4,-6,-3,-2
1461663565050935,-3,4,14,35,12,14,24,12
1461663565050935,3,10,-16,0,7,-6,-15,-4
1461663565050935,-20,-26,13,21,6,-12,-21,-14
1461663565065960,3,9,-10,-46,-22,-8,-1,-2
1461663565065960,5,-13,11,35,13,10,18,11
1461663565071946,2,13,5,1,-5,4,0,-3
1461663565071946,10,8,-7,25,12,-12,-29,-3
1461663565088016,2,-23,-19,-22,-16,-22,-31,-7
1461663565088016,-1,26,0,-16,-1,-2,9,-10
1461663565088975,10,12,3,-17,1,12,16,7
1461663565088975,-1,-21,-11,-39,-24,7,28,1
1461663565110990,-8,2,23,39,18,5,1,-1
1461663565110990,-9,-33,-9,0,7,-2,2,6
1461663565110990,-8,-11,-13,-5,5,11,20,13
1461663565110990,7,26,28,20,5,1,-30,-5
1461663565126002,2,6,-19,5,-2,3,30,0
1461663565126002,-5,-27,-19,-60,-18,-7,-30,-13
1461663565132050,4,18,36,66,10,-18,-10,-4
1461663565132050,-8,-18,-12,-5,3,1,12,6
1461663565147999,4,-18,-5,-50,-20,-1,-19,-9
1461663565147999,-13,26,6,57,32,-15,-15,-4
1461663565149001,15,-1,-18,-37,-16,-4,-24,11
1461663565149001,-18,-24,-3,-26,-23,-4,15,1
1461663565170015,4,14,18,75,36,21,57,9
1461663565170015,-21,-64,-8,-39,-23,3,-5,-7
1461663565171016,0,-13,-9,-47,-21,-20,-39,-22
1461663565171016,-7,72,2,64,29,-5,6,-9
1461663565186027,-10,108,14,-38,-18,27,34,10
1461663565186027,9,9,27,-14,-2,5,-20,9
1461663565192090,-22,31,-16,58,18,-9,5,-8
1461663565192090,45,106,-10,-41,-6,15,12,2
1461663565208100,-5,-35,-10,12,5,-3,-8,0
1461663565208100,18,46,8,56,21,-1,19,1
1461663565209073,-9,-95,40,-10,-5,-3,-2,0
1461663565209073,6,-21,-23,-5,2,-23,-66,-7
1461663565224065,-37,-86,-4,-12,-20,-16,-10,-13
1461663565224065,-26,-93,-8,-8,-17,6,18,-5
1461663565230088,16,-128,-15,-23,-4,19,54,18
1461663565230088,-6,-20,1,35,13,7,29,-4
1461663565246085,32,90,1,-42,4,-19,-29,11
1461663565246085,4,127,21,40,-9,-47,-110,-27
1461663565252075,-11,127,-14,19,18,3,4,-3
1461663565252075,2,1,-17,-68,-6,37,41,15
1461663565267146,21,113,35,87,31,24,19,5
1461663565267146,-8,83,-17,-6,-20,-27,-1,-9
1461663565275118,14,48,-9,13,19,8,-21,-14
1461663565275118,-37,-37,-3,-20,-23,3,21,2
1461663565291108,-8,-96,-41,-99,-25,1,33,-3
1461663565291108,20,-36,13,61,23,9,37,31
1461663565291108,-7,-11,2,-9,-18,-15,-47,-7
1461663565291108,-8,-32,34,6,-10,-18,-42,-15
1461663565306117,33,-39,2,-21,-10,3,-2,-7
1461663565306117,-13,-9,-11,1,6,20,6,-2
1461663565312132,-11,11,-19,-44,-8,-12,17,8
1461663565312132,15,3,-19,10,-9,-11,19,-5
1461663565327142,-23,-25,-3,32,11,-8,-28,9
1461663565327142,8,-13,13,-56,-27,-19,-26,-11
1461663565335131,-21,15,-10,-19,5,28,31,-12
1461663565335131,-26,-2,-6,44,18,15,-1,-5
1461663565350155,22,-23,-25,-41,-27,-28,-10,-16
1461663565350155,-15,15,-11,-17,19,31,31,11
1461663565351144,37,22,47,74,25,-8,-48,17
1461663565351144,17,3,16,19,-11,-25,8,7
1461663565366166,9,-25,35,25,8,15,26,-4
1461663565366166,-2,-10,-32,-19,-10,-1,24,3
1461663565372175,-9,0,-22,-13,8,5,31,-1
1461663565372175,22,-9,3,-26,3,-2,-42,5
1461663565390183,5,-25,-11,-50,-18,1,33,-4
1461663565390183,23,-2,40,53,22,43,8,6
1461663565395212,-35,9,-9,-5,-22,-45,-58,-21
1461663565395212,30,-5,-4,-70,-43,-31,-35,8
1461663565410198,-62,-8,-44,66,31,-22,-41,-7
1461663565410198,2,-5,-3,-32,-16,1,9,-14
1461663565411185,1,-5,-16,-55,-23,12,52,1
1461663565411185,-13,-6,26,39,35,52,31,27
1461663565426208,42,-6,29,71,16,-28,-111,-33
1461663565426208,-45,5,-20,-23,-13,-30,-26,-29
1461663565432260,-34,9,24,31,6,-3,-22,-17
1461663565432260,12,6,-54,-63,-9,10,35,3
1461663565447270,42,0,47,9,-5,14,96,42
1461663565447270,-3,8,-35,110,70,42,50,23
1461663565455276,-8,6,-4,-29,-31,-26,-17,-17
1461663565455276,4,-9,10,-15,-4,1,26,11
1461663565470235,31,-15,1,9,9,-7,-101,-23
1461663565470235,-13,-2,0,-47,-29,-33,-22,6
1461663565471235,-16,2,12,-7,-6,19,6,4
1461663565471235,-10,-3,-17,-1,5,-1,4,-15
1461663565486248,31,-14,-14,-45,-22,2,25,32
1461663565486248,-20,0,9,-16,-7,-7,4,-2
1461663565500252,-10,10,12,21,-14,-26,-64,-9
1461663565500252,25,-2,4,46,38,15,-13,-1
1461663565507257,8,-13,-42,-105,-46,-11,-65,-39
1461663565507257,-14,0,-1,58,11,-20,11,0
1461663565515262,18,12,18,44,-3,10,-8,15
1461663565515262,49,-2,67,14,17,11,9,9
1461663565530286,-100,-15,-37,78,56,18,63,25
1461663565530286,-32,13,-65,-128,-66,18,21,-34
1461663565531271,26,4,16,86,43,19,26,3
1461663565531271,58,-2,39,28,-6,-38,-16,29
1461663565546281,26,-20,6,-12,-6,24,23,24
1461663565546281,-44,0,-2,-38,-5,-21,-14,-23
1461663565552286,-14,25,-31,-8,-4,3,-19,-40
1461663565552286,-81,2,-28,-22,-31,-41,-35,-22
1461663565567299,77,-38,36,-3,-5,12,50,72
1461663565567299,39,11,21,-6,-11,3,-42,-21
1461663565574300,-48,26,-5,-38,-12,-2,28,-25
1461663565574300,-30,-6,10,-52,-7,11,-21,-11
1461663565590315,52,-40,-15,-26,-2,-12,-28,34
1461663565590315,2,4,-21,33,25,-3,28,11
1461663565591315,-60,21,34,-30,-15,-9,-38,-49
1461663565591315,63,-5,30,59,-1,-2,14,9
1461663565606326,0,-25,-71,-48,5,14,13,6
1461663565606326,-14,2,35,44,19,22,4,-11
1461663565612328,-42,18,-22,-73,-23,-32,-36,-53
1461663565612328,-65,-11,15,73,51,33,85,47
1461663565627339,48,-19,42,16,-14,-19,-47,40
1461663565627339,53,16,-12,-20,0,6,26,-6
1461663565634346,-52,6,-11,-7,2,28,116,-22
1461663565634346,58,-12,-36,-39,-38,-41,-70,13
1461663565650387,36,-8,-6,14,-8,-34,-97,-4
1461663565650387,-67,6,-3,-40,-14,-35,-62,-49
1461663565651356,113,-3,-20,-32,-24,-15,31,-4
1461663565651356,-75,3,16,-20,-15,35,117,37
1461663565674390,-83,-15,-36,103,49,13,5,24
1461663565674390,16,7,35,-34,-21,-8,-60,8
1461663565675374,-20,2,-27,25,16,14,-27,14
1461663565675374,12,-7,6,40,12,-6,-10,-32
1461663565687410,-27,1,62,86,26,2,6,-7
1461663565687410,-1,9,13,-53,-7,29,111,15
1461663565695416,-46,6,13,27,12,23,27,-12
1461663565695416,79,-10,-13,-81,-22,-30,-112,-1
1461663565710397,-32,12,8,24,24,23,3,-1
1461663565710397,89,-10,5,53,39,24,30,25
1461663565711398,-26,12,-15,-9,15,-32,-64,-32
1461663565711398,39,-8,-37,-69,-36,-9,25,22
1461663565726408,17,-1,-9,-26,-4,22,-19,-25
1461663565726408,-29,-7,-11,-10,-41,-68,-85,-10
1461663565732437,63,8,-29,-31,-8,13,6,-3
1461663565732437,-27,-27,6,37,-13,4,35,-2
1461663565747494,75,-2,6,-53,-35,-8,-7,-1
1461663565747494,-68,10,-5,-76,-37,-16,-35,-24
1461663565754498,106,-10,-37,97,57,9,-9,-12
1461663565754498,-128,-4,-42,69,65,21,3,-17
1461663565770441,56,-1,0,-80,-24,-2,45,55
1461663565770441,-45,1,51,102,26,1,4,-12
1461663565771442,-78,1,33,-21,15,-3,-11,-28
1461663565771442,85,-11,-8,-46,-8,11,33,21
1461663565786453,23,-1,-42,-35,11,26,86,36
1461663565786453,-3,1,-4,-71,-20,33,-15,-24
1461663565792455,76,15,36,12,-14,-66,-74,-19
1461663565792455,-62,-16,-4,100,34,-4,-35,2
1461663565807466,9,4,21,3,-23,-3,40,21
1461663565807466,-34,2,-22,-53,-26,1,-5,-17
1461663565814471,127,-5,-3,-20,-27,-8,18,10
1461663565814471,11,-7,0,11,7,-9,-29,17
1461663565830483,30,-2,24,14,-1,-1,-14,-17
1461663565830483,1,4,-41,4,28,-3,4,8
1461663565831482,-8,8,-17,-58,-34,4,-4,0
1461663565831482,-51,-16,-14,-55,-45,-28,-50,-24
1461663565846493,15,-7,51,74,40,11,14,2
1461663565846493,-35,5,-10,-3,-13,-2,25,-27
1461663565852500,-68,1,-11,-5,24,24,30,25
1461663565852500,55,-10,-11,-51,-10,16,45,15
1461663565867509,-97,-1,2,-19,-14,9,31,-22
1461663565867509,11,0,14,39,6,-31,-11,5
1461663565874512,-16,-2,-3,27,6,1,-8,4
1461663565874512,47,-6,-10,-5,-2,21,-37,-8
1461663565890537,22,-8,-24,-27,-14,-40,-26,25
1461663565890537,127,0,27,31,12,-2,57,21
1461663565891537,-102,3,8,-23,-23,0,-37,-52
1461663565891537,57,-8,-19,-30,-20,-16,-18,0
1461663565906555,-2,9,-46,-55,-23,10,17,-19
1461663565906555,-14,-2,60,61,30,29,30,38
1461663565912610,-5,-9,39,-15,-4,-13,-4,8
1461663565912610,34,-10,-5,81,65,28,8,4
1461663565927575,27,7,30,-5,24,-23,-39,8
1461663565927575,-45,1,-47,43,6,8,0,-31
1461663565934580,-21,-9,31,6,18,29,36,-1
1461663565934580,44,-9,-5,-36,-23,-19,10,20
1461663565950591,-19,8,-22,-37,-38,-2,-55,-27
1461663565950591,-24,1,-6,-14,-6,5,66,34
1461663565951568,102,-2,-1,30,19,-6,-27,3
1461663565951568,-128,-2,-22,-43,-34,-44,-44,-20
1461663565966579,-1,-4,7,18,-3,14,29,2
1461663565966579,73,1,-14,-60,-26,3,-38,-29
1461663565980602,-20,2,-15,-101,-75,-44,-23,11
1461663565980602,-26,-12,49,85,69,32,32,27
1461663565987607,-116,15,-40,-41,-7,-15,9,-41
1461663565987607,-27,0,53,113,64,37,-6,-22
1461663565994636,76,-5,-44,-113,-69,9,49,38
1461663565994636,-5,-6,70,82,70,15,0,8
1461663566010648,7,2,-19,48,34,1,-9,-6
1461663566010648,44,-1,-7,-76,-17,-12,-7,-7
1461663566011609,-95,2,17,34,13,7,-6,4
1461663566011609,64,-7,-8,-26,-22,5,67,29
1461663566026634,-39,8,9,2,-2,21,-44,-12
1461663566026634,-42,1,-44,-9,-14,-39,-75,-35
1461663566032654,-20,1,9,1,0,4,41,50
1461663566032654,-2,-2,-30,-38,-40,-22,-44,-13
1461663566055672,19,3,22,-1,-4,4,37,18
1461663566055672,-24,5,-28,-52,-23,-6,-29,-15
1461663566056643,-32,-9,-4,28,35,14,-4,-32
1461663566056643,79,-11,-1,-1,-14,-10,-8,-4
1461663566070654,-23,14,7,-58,-55,-18,26,23
1461663566070654,-66,-8,-30,73,53,25,27,-15
1461663566071669,26,-8,29,-5,8,-14,-26,-1
1461663566071669,11,-7,27,-36,-17,-3,3,0
1461663566086666,64,1,19,98,88,12,-8,-2
1461663566086666,-9,1,14,9,0,8,11,3
1461663566092680,-32,-4,-25,2,-8,9,33,8
1461663566092680,36,-9,-7,-48,-34,-5,-22,-9
1461663566107737,-31,1,-30,-39,-39,-19,-6,-11
1461663566107737,17,-2,10,-30,-18,0,33,34
1461663566114682,-7,-4,-7,46,30,14,-7,-31
1461663566114682,10,1,-13,-47,-19,-23,-31,9
1461663566130844,33,1,5,11,-7,-41,-22,-3
1461663566130844,56,-1,-12,-40,-21,35,-12,-1
1461663566131786,-38,4,11,14,0,-14,-20,25
1461663566131786,-37,-13,-27,-37,9,18,20,-15
1461663566146813,26,5,35,50,12,-18,0,-14
1461663566146813,-50,-1,-5,-5,23,9,0,0
1461663566152810,28,-3,5,18,4,17,19,-3
1461663566152810,-39,-10,-56,-107,-58,-16,-15,-6
1461663566168824,-27,5,41,92,51,19,-7,1
1461663566168824,4,2,-3,-52,-22,-23,-9,-18
1461663566174845,-7,-2,18,14,8,9,6,-2
1461663566174845,37,-3,6,22,11,0,18,20
1461663566191838,-2,-2,-38,-65,-41,-9,-15,-10
1461663566191838,-27,-10,13,21,-4,-10,55,-10
1461663566197838,-9,-9,-13,-20,4,15,-25,6
1461663566197838,40,-11,-4,20,-12,-13,-29,21
1461663566206841,-36,5,-3,-20,-16,-59,-32,-5
1461663566206841,-15,-5,9,14,7,19,19,3
1461663566211859,-14,1,-7,1,7,58,5,-8
1461663566211859,-17,-2,12,21,12,16,2,-11
1461663566228854,18,-2,-8,-28,-19,12,-29,-11
1461663566228854,-41,-45,4,27,0,-46,-12,1
1461663566234859,-2,-25,-22,-60,-25,-22,20,7
1461663566234859,7,1,5,37,20,16,6,-5
1461663566249933,16,23,23,38,22,7,23,-6
1461663566249933,10,-17,-6,-20,2,-5,-21,-4
1461663566257894,7,-128,7,46,23,3,12,12
1461663566257894,5,127,-3,-15,-21,-9,-6,-5
1461663566272915,-4,101,-1,-23,-2,10,5,-5
1461663566272915,17,68,4,-10,-6,-1,-26,-12
1461663566273894,-21,37,2,9,4,-9,-4,7
1461663566273894,19,81,-15,-11,-8,15,79,37
1461663566288905,-23,98,-13,-27,-19,-15,-25,3
1461663566288905,-26,79,3,10,-8,-40,-93,-33
1461663566294930,24,52,9,12,15,27,0,9
1461663566294930,19,57,9,11,4,31,15,-19
1461663566309927,9,45,-2,-6,-5,21,39,12
1461663566309927,-20,-88,-2,-24,-23,-13,22,18
1461663566316932,-19,-100,-24,-32,-19,-36,-1,1
1461663566316932,-11,-17,13,32,37,-3,-13,-13
1461663566332940,4,-48,12,58,52,34,14,-11
1461663566332940,2,-97,5,16,18,-4,-1,4
1461663566333940,8,-74,10,5,3,-12,4,9
1461663566333940,2,-14,0,-3,-9,-4,-13,-4
1461663566348939,-19,-121,-15,-23,-19,-15,-21,-25
1461663566348939,10,-80,-2,-5,-11,0,-4,-5
1461663566354955,-6,-26,7,3,-1,7,20,8
1461663566354955,9,-22,-12,-8,-8,-17,-19,-2
1461663566369955,-36,56,-6,-22,-22,3,8,-9
1461663566369955,11,50,-7,-8,-4,9,22,44
1461663566376971,6,31,-8,-3,-1,8,-4,14
1461663566376971,-10,12,1,3,-5,-15,19,-36
1461663566392972,-45,31,-4,-12,-9,-11,-55,-43
1461663566392972,32,23,-6,-31,-12,18,-23,20
1461663566393972,32,22,-4,-24,4,-9,18,33
1461663566393972,-20,29,53,97,55,14,5,-27
1461663566416987,-17,13,-15,-20,-9,8,27,-20
1461663566416987,4,-4,21,3,1,2,17,22
1461663566417988,39,11,-13,-23,-5,-6,-4,25
1461663566417988,-18,-1,-13,-7,2,-1,-8,-25
1461663566430035,-24,-2,8,3,1,1,-2,-26
1461663566430035,8,-26,6,18,8,-9,-8,19
1461663566437002,18,-7,-20,-6,-16,-6,-3,12
1461663566437002,-15,-12,-13,-25,-20,-22,-15,-26
1461663566453017,-20,-1,0,-3,-3,-1,-1,-14
1461663566453017,40,-5,-8,-11,-14,-19,6,35
1461663566454017,-7,-15,1,22,12,32,18,16
1461663566454017,-45,3,-13,-27,-18,-16,-26,-34
1461663566469029,-29,6,2,-8,4,20,14,-13
1461663566469029,12,-23,-7,11,18,14,5,24
1461663566475032,22,5,8,19,2,-17,-6,5
1461663566475032,-12,11,-7,-9,-9,-3,-5,-34
1461663566490042,-22,7,-9,-37,-17,-18,-6,-13
1461663566490042,24,-19,15,14,2,5,7,28
1461663566497062,29,2,12,22,13,-9,-7,16
1461663566497062,-11,-7,-6,-17,-11,-1,-7,-29
1461663566513119,-6,1,12,18,1,-17,-2,-8
1461663566513119,0,-18,-15,1,6,16,7,22
1461663566514057,14,15,-3,-2,3,8,-2,9
1461663566514057,-13,-4,-4,-12,-10,2,-1,-21
1461663566529066,-11,-17,-20,-6,-7,-18,-3,-12
1461663566529066,2,-10,18,4,2,22,2,16
1461663566535109,9,9,2,5,-5,-16,-12,-1
1461663566535109,3,11,-5,-10,-3,4,-7,-14
1461663566550140,-15,-12,0,4,3,-3,-9,-9
1461663566550140,-2,1,0,4,2,-4,-2,8
1461663566557145,20,-77,0,-9,-8,-4,2,9
1461663566557145,-10,-106,-3,-13,-4,-5,0,-14
1461663566573109,-10,-13,-2,11,5,-2,3,-4
1461663566573109,2,21,-9,-4,-4,-3,0,11
1461663566574111,8,65,6,-3,-3,0,3,3
1461663566574111,-10,46,-5,1,4,-6,-6,-10
1461663566589174,-11,22,-1,5,1,3,-1,-3
1461663566589174,10,28,3,-2,0,-1,3,6
1461663566595226,10,17,13,9,0,-5,-2,4
1461663566595226,-13,-16,-21,-9,-6,-1,-1,-8
1461663566610192,-15,-11,-2,-7,-1,4,3,-5
1461663566610192,5,15,6,2,-1,-4,-1,2
1461663566617245,7,17,-13,-20,-8,5,-2,1
1461663566617245,-6,10,12,14,3,-3,-1,-7
1461663566633222,-1,17,20,3,1,17,5,-1
1461663566633222,6,-2,-3,4,1,-6,-3,3
1461663566634196,6,1,7,10,5,-3,1,2
1461663566634196,-4,22,-7,-4,-1,2,1,-4
1461663566649212,-5,10,-10,-7,-4,-4,-3,-1
1461663566649212,4,3,-4,-4,-3,-3,-2,2
1461663566655238,5,0,-4,0,2,-3,-3,1
1461663566655238,-4,0,1,-1,0,0,-2,-2
1461663566671223,-10,-26,-10,-3,-2,-5,-4,-3
1461663566671223,0,-27,4,-2,0,0,0,2
1461663566677240,10,-12,3,4,2,0,1,2
1461663566677240,-4,-19,-3,-2,-1,-6,-1,-2
1461663566693236,-4,-10,-3,-1,-3,5,1,0
1461663566693236,3,3,-3,4,2,3,0,-1
1461663566694272,3,-6,2,5,3,0,0,1
1461663566694272,-5,-5,7,4,-3,-5,-3,-3
1461663566707285,-1,3,-7,-10,-4,-1,0,0
1461663566707285,0,9,3,-3,-3,-6,-2,-3
1461663566715291,8,-7,-2,-4,-1,-4,-1,0
1461663566715291,-5,6,1,-3,-7,7,0,-2
1461663566730301,-5,-5,-8,-6,3,5,-2,-1
1461663566730301,3,10,1,9,2,-2,-2,1
1461663566737266,2,-4,-4,-4,-3,-5,-2,-2
1461663566737266,-4,4,-2,-1,-1,-2,-1,-2
1461663566753301,-2,2,1,-4,-5,-4,-1,-2
1461663566753301,-3,-9,-2,-5,-2,-1,-3,-2
1461663566754285,-4,0,-3,1,-2,-1,-1,0
1461663566754285,-4,-15,0,-1,-1,1,-1,-1
1461663566769291,2,5,8,1,0,0,-1,4
1461663566769291,0,-2,-4,-6,-1,-1,-2,-3
1461663566775317,-1,-11,-2,3,-1,1,2,-3
1461663566775317,-2,4,0,-1,-1,1,-2,-4
1461663566790328,-4,-10,-6,-4,0,-3,-3,-2
1461663566790328,6,4,-2,-2,-1,-2,2,2
1461663566805354,3,8,9,-2,-3,-2,-1,-1
1461663566805354,-3,0,-4,-4,0,-2,-1,-2
1461663566813379,-2,5,3,-1,1,-2,0,-1
1461663566813379,1,6,-3,-1,1,1,1,1
1461663566813379,4,8,-3,-4,-3,-2,-2,0
1461663566813379,1,-4,-2,-2,-4,-4,-2,-1
1461663566829364,-10,3,-3,10,5,0,-2,2
1461663566829364,-1,-2,-3,-4,-2,1,0,0
1461663566835337,-1,-7,2,4,2,1,0,-2
1461663566835337,-3,1,-1,-5,-3,-1,-2,-2
1461663566850375,-1,-4,-2,-3,-1,-3,-2,-2
1461663566850375,-4,-4,-3,0,-1,-1,0,1
1461663566857382,6,7,2,2,1,0,0,1
1461663566857382,-2,-10,-7,0,-1,-2,-2,-3
1461663566873363,-11,-9,-3,-2,-3,-2,-2,-2
1461663566873363,4,-1,-1,0,-2,-1,-1,0
1461663566873363,0,-5,-4,-2,0,0,0,-1
1461663566873363,-3,1,-2,1,-2,-1,-3,0
1461663566889374,0,1,1,0,-1,-2,0,0
1461663566889374,2,3,-2,-2,-1,-1,1,-1
1461663566894418,0,-1,-2,1,0,1,0,0
1461663566894418,-4,-4,-1,-1,-2,-3,-2,-2
1461663566909428,-1,2,2,-1,-2,-1,-1,1
1461663566909428,-2,-2,-7,-12,-5,-2,0,0
1461663566917436,0,-2,2,10,0,-2,0,-2
1461663566917436,1,-1,0,6,4,-1,0,-1
1461663566933442,-5,-6,1,-1,0,-2,0,0
1461663566933442,1,-6,-1,3,1,0,-1,0
1461663566933442,1,0,-3,-6,-4,-2,-2,-2
1461663566933442,-1,2,-2,-8,-3,-2,-1,-2
1461663566949421,0,-2,-3,-2,-2,0,0,2
1461663566949421,5,-1,-1,-3,-1,1,-2,-1
1461663566955437,4,0,-3,-5,-1,-2,-2,-3
1461663566955437,-4,-1,1,2,0,-2,-1,-3
1461663566970434,-3,2,1,-2,-2,1,-2,-2
1461663566970434,-1,-3,-1,-1,1,-1,0,-2
1461663566977439,0,4,-2,-1,0,-1,-1,-1
1461663566977439,2,0,-1,-1,-1,0,-2,0
1461663566993448,-4,-4,1,-3,-1,-1,-1,-1
1461663566993448,-2,1,3,2,1,0,-1,1
1461663566993448,2,2,0,2,3,1,0,-3
1461663566993448,-4,-2,-3,-5,-4,-3,-2,-3
1461663567008459,-3,-2,-4,-11,-8,-2,-1,-1
1461663567008459,0,1,1,3,5,0,0,-1
1461663567014463,3,2,0,0,1,0,-1,1
1461663567014463,-4,-2,0,0,-1,0,-1,0
1461663567029474,-3,0,-5,-4,-2,-1,0,-2
1461663567029474,0,1,0,-11,-8,-3,-2,-3
1461663567037479,0,-3,4,4,-2,0,0,0
1461663567037479,-2,-4,1,7,4,0,-1,-1
1461663567053525,-2,-1,2,2,1,-1,-2,0
1461663567053525,0,-3,-3,0,-1,0,-2,-1
1461663567053525,-3,3,0,-4,-3,-1,-1,-2
1461663567053525,-5,-4,-1,-3,-3,-1,-2,-2
1461663567068555,-1,6,1,2,1,-2,0,1
1461663567068555,2,2,3,4,1,1,-2,0
1461663567074539,-1,-8,-9,-7,-2,-1,-2,-3
1461663567074539,-2,0,0,-2,-3,-2,-1,0
1461663567089563,-2,-2,1,5,3,1,1,2
1461663567089563,1,-1,-1,-2,-1,-3,3,0
1461663567097585,0,-1,-1,-2,-2,-3,-2,-3
1461663567097585,-3,-3,-4,-6,-3,-3,-2,-3
1461663567112582,1,0,-1,7,2,2,3,3
1461663567112582,-1,-1,1,-1,0,-2,-1,-3
1461663567119572,3,-3,-3,-2,-1,-1,-1,-2
1461663567119572,-2,-2,0,0,1,-1,-2,-2
1461663567135586,-1,-2,2,1,-2,-1,-1,0
1461663567135586,1,1,-4,-6,-3,1,0,1
1461663567136599,-1,-2,-1,-6,-5,-3,-2,-2
1461663567136599,-2,1,-4,-1,0,0,-1,0
1461663567149609,-2,-4,0,11,4,1,-1,0
1461663567149609,-1,-3,-3,1,0,0,1,-1
1461663567157637,0,-2,-4,-3,-4,-1,-1,-3
1461663567157637,-2,-1,-3,-6,-5,-2,-1,-1
1461663567172608,-3,1,-1,-3,-3,-1,-1,-1
1461663567172608,1,-1,0,-1,1,-2,0,-1
1461663567179652,0,-1,1,5,0,0,-1,-1
1461663567179652,-2,0,1,0,-3,-2,1,-2
1461663567196691,-2,-1,-1,-3,-1,-1,-2,1
1461663567196691,0,-1,-3,-1,-3,1,0,1
1461663567197642,-1,2,0,-3,0,-1,0,-1
1461663567197642,0,-2,-1,0,0,0,-1,0
1461663567209706,-3,1,1,-3,-3,-2,0,-1
1461663567209706,0,0,1,4,2,1,1,-1
1461663567217641,0,-2,-4,-1,-1,0,-1,-1
1461663567217641,-4,-6,-7,-14,-8,-1,-3,-2
1461663567232675,0,1,5,9,4,-1,0,0
1461663567232675,-1,0,5,15,7,3,0,1
1461663567239681,1,0,3,3,2,-1,-1,-2
1461663567239681,-2,-2,-1,2,1,-2,-1,-1
1461663567248688,-3,-3,-5,-11,-5,-1,-1,0
1461663567248688,-2,-2,0,-4,-5,-2,-2,-1
1461663567254672,2,-2,-8,-7,-3,-1,-1,-1
1461663567254672,-2,-4,3,9,-1,-1,-1,-2
1461663567269691,-2,-3,-1,-4,-1,-2,-1,-1
1461663567269691,1,1,1,0,0,-1,-1,0
1461663567277697,1,2,1,-1,0,-2,-1,-1
1461663567277697,-2,-5,-5,-4,-2,-1,-2,-2
1461663567292753,-5,2,0,1,0,-1,0,0
1461663567292753,0,-3,-1,-1,-2,-1,-3,-3
1461663567299758,0,-2,-1,4,2,0,-1,-1
1461663567299758,-2,0,-2,-3,-1,-2,-1,0
1461663567315784,-1,1,0,-3,-4,0,1,0
1461663567315784,-1,0,-5,-7,-3,-2,-1,-2
1461663567316771,0,-1,-2,-7,0,-1,-1,-2
1461663567316771,-4,-2,1,7,0,-1,-2,-3
1461663567329806,-1,-1,3,4,1,0,0,0
1461663567329806,2,1,-5,5,2,1,2,0
1461663567337792,-1,-3,-2,5,-2,0,-1,-2
1461663567337792,-1,1,0,-3,-1,1,0,-1
1461663567352801,-3,-2,-4,-6,-5,-3,-1,-1
1461663567352801,-1,0,2,0,-1,-2,-3,-1
1461663567359806,3,-3,-2,-5,-5,-2,-1,-1
1461663567359806,-2,1,-2,-3,0,-1,0,0
1461663567375832,-3,-3,-1,-1,-1,-1,-2,0
1461663567375832,0,-4,-3,-2,-2,0,0,1
1461663567376817,-1,-1,-2,-3,-3,0,-1,-1
1461663567376817,-1,-3,-2,-3,-1,0,0,1
1461663567389838,0,0,2,4,3,1,-1,1
1461663567389838,-1,0,2,-3,-2,-2,0,-1
1461663567397829,-2,-2,-2,3,3,-1,-2,-2
1461663567397829,-5,0,-2,-3,-2,-1,-1,0
1461663567412839,-2,-2,-3,0,-2,-2,0,-1
1461663567412839,0,0,-1,1,-1,0,0,0
1461663567419858,1,-5,-2,-2,-3,-3,-1,-1
1461663567419858,-1,-1,-5,-6,-1,-2,0,-1
1461663567443874,-4,-2,-4,-2,-1,-1,0,-2
1461663567443874,1,2,3,3,1,0,1,0
1461663567444875,1,-1,-1,0,-4,-1,-3,-3
1461663567444875,0,1,-6,-10,-2,-2,0,-1
1461663567449905,-1,-1,0,-4,0,-1,-1,-2
1461663567449905,-1,-2,2,5,1,-3,0,-1
1461663567465918,1,-1,-1,2,2,-1,-1,-1
1461663567465918,-2,-2,0,1,-1,0,0,-2
1461663567472883,-2,-2,-2,-5,-1,-2,-3,0
1461663567472883,-2,-3,-6,-5,-5,-2,-1,-2
1461663567480894,-1,1,-1,-1,-1,-1,-1,-2
1461663567480894,-1,-3,3,3,-2,-3,-3,-2
1461663567495957,-2,1,-5,-8,-3,0,-1,0
1461663567495957,-1,0,3,8,2,2,-1,0
1461663567495957,1,-3,-5,-2,-3,-1,-1,-1
1461663567495957,-1,-1,0,3,0,-1,-1,-1
1461663567509968,-2,0,-1,-1,-2,-2,-1,0
1461663567509968,-2,-6,-5,-7,-2,-1,-2,-1
1461663567517919,1,1,2,-1,-2,-1,-1,-2
1461663567517919,-6,-5,2,10,2,1,-2,-1
1461663567532927,-1,0,-1,3,0,-1,0,-1
1461663567532927,3,0,-1,-3,0,-1,-1,-2
1461663567539931,0,-1,-2,-4,-3,-2,0,0
1461663567539931,-1,-2,-2,1,2,-1,-1,-1
1461663567555943,0,-1,-2,-7,-2,1,-1,1
1461663567555943,1,1,6,8,3,2,-1,-2
1461663567555943,-1,-3,-4,-3,-3,-2,-2,-3
1461663567555943,-1,1,-2,-5,-4,1,-3,-2
1461663567569952,-2,0,-2,-1,0,-1,-1,-1
1461663567569952,-2,-1,0,0,-3,-2,0,-1
1461663567576957,0,-3,0,1,-1,-2,0,-4
1461663567576957,-2,-2,-3,-7,-2,-2,1,0
1461663567592027,-2,0,2,1,-2,-2,-1,0
1461663567592027,3,1,-3,1,3,0,0,-1
1461663567600033,0,0,0,-4,-1,0,-2,-3
1461663567600033,-1,-2,2,9,2,0,-2,2
1461663567616033,-1,-3,-2,-4,-1,0,-2,-1
1461663567616033,-2,-1,2,-3,-3,-1,-1,1
1461663567616033,-1,-2,-2,-3,-2,-1,-1,-2
1461663567616033,-3,-1,0,-2,-2,-8,-25,-3
1461663567630052,0,1,0,0,-1,-2,14,0
1461663567630052,1,-1,-1,-3,1,5,20,3
1461663567637017,2,-5,-1,1,2,-1,-1,-1
1461663567637017,-4,0,-2,-2,-2,0,5,1
1461663567653012,-1,-2,-1,0,-2,-4,-12,-1
1461663567653012,1,3,0,-2,-1,-2,-5,-2
1461663567660076,-2,-2,0,-1,-3,-1,0,-1
1461663567660076,-1,-2,-2,-2,0,0,-2,0
1461663567676028,-5,-2,1,6,1,-2,-1,0
1461663567676028,2,0,-7,-8,-4,-3,0,-1
1461663567676028,1,-2,0,-5,-3,-3,-4,-1
1461663567676028,-1,0,-2,-5,-4,1,2,-1
1461663567690038,1,2,2,11,4,1,3,3
1461663567690038,0,0,0,-4,-1,-2,-5,-2
1461663567697043,-2,-5,-9,-9,-4,-1,-4,-3
1461663567697043,-1,1,8,12,3,1,4,0
1461663567712052,-3,-1,-5,-8,-1,-2,1,1
1461663567712052,1,-1,1,2,-3,-2,-5,-2
1461663567720058,-1,-2,-4,-5,-4,0,0,-3
1461663567720058,-5,-2,-3,-2,0,0,4,2
1461663567735068,-2,-2,-4,-1,-2,-1,-3,-3
1461663567735068,3,2,0,-2,-1,-3,-4,-3
1461663567736069,0,-1,-2,-1,-1,0,-2,-2
1461663567736069,-4,-5,0,-6,-5,-2,2,-3
1461663567750138,0,2,3,5,3,0,-1,1
1461663567750138,-1,-3,1,0,0,-1,-1,0
1461663567757084,1,0,1,5,0,0,-1,-1
1461663567757084,0,2,1,0,-1,-2,-2,0
1461663567772093,-4,0,-5,-8,-3,-1,-2,-2
1461663567772093,0,-4,-5,-9,-4,0,0,-1
1461663567780101,2,0,1,7,2,1,-1,-3
1461663567780101,-3,-3,-3,0,2,-2,-1,0
1461663567804151,-3,-1,1,-4,-2,-1,-2,-2
1461663567804151,1,0,1,3,0,-2,-1,0
1461663567804151,-1,0,1,-1,-1,-3,-1,-1
1461663567804151,-1,2,-3,-4,-2,-2,0,-2
1461663567810185,1,-3,2,3,0,-1,0,0
1461663567810185,-1,-4,-3,-7,0,0,-2,-2
1461663567817221,-2,-1,2,10,2,-1,-1,-3
1461663567817221,0,1,-3,-5,0,-2,0,-1
1461663567832171,-1,-1,5,4,1,0,-3,-1
1461663567832171,2,-1,-3,1,0,-1,-1,0
1461663567848182,0,-3,-5,-12,-5,-3,-2,-2
1461663567848182,-4,-3,-2,-2,-3,-1,-1,-2
1461663567855186,0,2,-4,-7,-1,0,1,0
1461663567855186,-1,0,-3,-1,-2,-2,-1,-1
1461663567856187,0,0,-2,-3,-2,-3,-1,-1
1461663567856187,-5,-1,2,-1,-2,-1,-1,-2
1461663567870196,0,1,1,1,1,0,0,1
1461663567870196,-1,-2,-3,-1,-1,-3,-2,0
1461663567877200,0,1,1,-2,-1,-1,-2,-1
1461663567877200,-4,0,-1,-1,-2,0,-2,-1
1461663567892212,-2,-3,-3,0,0,-2,-1,0
1461663567892212,0,-2,0,-1,0,0,0,2
1461663567900218,0,-4,-5,-1,-4,-2,-1,-2
1461663567900218,-2,0,0,2,-1,0,0,0
1461663567915228,-2,-1,0,0,-1,-1,-1,-1
1461663567915228,0,0,-1,1,-1,-2,-2,-2
1461663567916228,0,-1,-1,-3,-2,0,-2,-2
1461663567916228,-2,-3,-4,-7,-1,-1,0,-2
1461663567930238,-2,0,2,-1,-2,-1,-1,-3
1461663567930238,0,-2,1,6,2,0,0,-1
1461663567937243,0,-2,-8,-12,-6,-2,-3,-1
1461663567937243,-4,-1,1,4,2,0,1,0
1461663567952255,-1,-1,6,6,0,0,0,-1
1461663567952255,0,-2,-1,0,3,0,-1,-2
1461663567960324,0,-3,-2,2,-3,-1,-2,-3
1461663567960324,0,-1,-3,-1,0,-1,0,1
1461663567975270,-6,-3,-4,-3,-3,-2,-2,-1
1461663567975270,2,1,1,0,-1,-1,-1,-1
1461663567976271,-2,0,1,0,0,0,-2,-2
1461663567976271,-2,-1,-3,-3,-2,-1,0,0
1461663567990296,-1,0,-2,0,0,0,1,0
1461663567990296,2,1,-2,-4,-2,-3,-2,-1
1461663567997346,0,2,-1,-1,0,-2,-1,-1
1461663567997346,-2,-1,2,3,2,-1,-1,-1
1461663568012360,-1,-1,-3,-4,-1,0,0,0
1461663568012360,1,0,2,2,-1,-1,-2,-1
1461663568020302,0,-4,0,1,-2,0,0,-2
1461663568020302,-3,2,-1,-3,-4,-2,-3,1
1461663568035350,1,-4,-6,-8,-2,-1,0,0
1461663568035350,1,1,5,12,5,1,1,1
1461663568036313,-1,1,1,-3,-2,-3,-1,-2
1461663568036313,-2,-1,-1,6,3,-1,0,0
1461663568050384,-4,-3,-2,-5,-2,-2,-1,0
1461663568050384,0,-3,-2,-6,-2,-2,0,-2
1461663568057387,-1,-4,-5,-6,-2,-2,1,-2
1461663568057387,-4,-3,3,5,-2,-1,0,0
1461663568080403,-2,-1,-1,0,0,0,-1,1
1461663568080403,0,0,2,2,0,0,-1,-1
1461663568081368,0,-2,3,3,-1,-1,-2,-3
1461663568081368,3,0,-4,-8,-4,-2,0,0
1461663568095410,-2,2,-2,0,-1,0,-1,0
1461663568095410,-2,2,2,2,0,1,-1,-2
1461663568103391,-2,-7,-1,-1,-2,-2,-2,-2
1461663568103391,-5,-4,-2,-4,0,-2,-2,-1
1461663568110410,-1,-2,-2,-2,-2,-1,0,0
1461663568110410,1,0,-1,-5,-3,-2,-1,-1
1461663568117430,2,1,2,6,4,0,0,0
1461663568117430,-5,0,-2,-1,0,0,-2,-1
1461663568132401,-2,0,2,0,0,-1,0,-1
1461663568132401,1,3,-8,-11,-4,-2,-1,-1
1461663568139398,0,-3,4,10,-1,-2,-2,-3
1461663568139398,0,-1,-2,-7,0,2,0,1
1461663568155413,-2,-2,0,6,0,1,-1,-1
1461663568155413,1,-1,-1,-8,-4,-1,0,-2
1461663568163467,-1,3,0,-2,-1,-2,-2,0
1461663568163467,-2,-3,-2,-2,-3,-1,0,-1
1461663568170410,-1,-2,-5,-4,-1,-1,-1,0
1461663568170410,-1,-1,1,-5,-3,-2,0,-1
1461663568193425,-3,-3,3,5,1,-1,-2,-2
1461663568193425,-1,0,-2,0,1,-2,-2,1
1461663568196426,0,0,1,1,3,-2,-1,0
1461663568196426,3,-3,-2,-1,-4,0,0,0
1461663568199429,-2,-3,-6,-12,-6,-2,-3,-4
1461663568199429,-1,0,3,4,2,0,0,-2
1461663568214439,-4,0,-1,-3,-2,1,0,-2
1461663568214439,-2,-3,-1,2,1,1,-1,0
1461663568223445,1,1,-3,-1,-3,-2,-1,0
1461663568223445,-3,-1,0,-1,-3,-2,-1,-1
1461663568238457,1,1,1,-1,-1,-3,0,-2
1461663568238457,-3,-2,2,2,0,-2,0,-2
1461663568238457,-1,-2,-4,-5,-2,0,-3,-3
1461663568238457,-3,-1,-2,-6,-3,-1,-2,-1
1461663568252466,0,-3,4,11,4,0,0,1
1461663568252466,1,0,-6,-5,-1,-1,0,-1
1461663568259472,0,0,2,3,1,-1,-1,-1
1461663568259472,-2,0,-5,-14,-6,-2,-1,0
1461663568274481,4,7,2,9,1,-2,0,1
1461663568274481,-8,-7,-1,3,1,-1,-2,-6
1461663568283551,1,-2,-2,-3,-4,0,0,-1
1461663568283551,-2,0,0,0,-1,-1,1,1
1461663568298499,-4,-7,-5,-11,-4,-3,-1,-1
1461663568298499,5,2,-2,9,2,1,0,2
1461663568298499,1,-3,-2,0,-1,-1,-2,-1
1461663568298499,-4,0,1,-1,-1,-1,-1,-2
1461663568312508,3,2,1,3,2,1,-2,1
1461663568312508,3,3,-2,-4,-1,-1,-1,-1
1461663568319517,-3,-4,-5,-4,0,-3,0,-2
1461663568319517,-2,-2,-1,7,1,1,-1,0
1461663568334524,-3,-2,-1,-3,-2,0,-1,1
1461663568334524,4,0,1,-1,2,1,-1,0
1461663568342529,-1,0,-4,-4,-2,-2,-2,-3
1461663568342529,-2,-2,4,7,0,-2,-1,-2
1461663568359541,-4,-4,-2,-4,-2,-1,0,-2
1461663568359541,3,-1,-1,-2,-3,-1,-1,-1
1461663568360542,-2,2,-6,-11,-2,-2,-1,-1
1461663568360542,-1,-2,7,12,3,0,-1,0
1461663568372551,1,2,1,2,1,0,0,-2
1461663568372551,2,-3,-3,0,0,0,0,0
1461663568379555,0,0,-3,-6,-2,-2,-1,-2
1461663568379555,-4,3,-3,-4,0,-1,-3,-1
1461663568394567,2,-7,2,2,-1,0,1,0
1461663568394567,2,5,0,-5,-3,-2,-1,-2
1461663568410578,-6,-12,-5,-2,-4,-3,-2,-1
1461663568410578,0,8,2,1,3,1,1,1
1461663568417732,-2,0,0,0,0,1,0,0
1461663568417732,-1,-6,-1,1,0,1,0,1
1461663568418674,2,1,0,0,-4,-3,-1,-2
1461663568418674,-5,-1,-1,0,-3,-1,-2,1
1461663568432742,0,1,-2,-10,-5,-2,-2,2
1461663568432742,1,1,3,-3,-1,-1,0,-2
1461663568439700,-3,-4,3,10,5,0,-1,-4
1461663568439700,-1,-3,-6,-7,-1,-2,-1,-1
1461663568454731,1,3,-1,-10,-6,-4,-2,-1
1461663568454731,1,-2,1,9,3,0,-1,1
1461663568470740,-2,0,1,7,4,1,0,0
1461663568470740,-7,-4,-4,-7,-3,-2,-3,-2
1461663568477745,3,5,-3,-7,-2,1,1,1
1461663568477745,-1,-5,-7,-6,-3,-3,-1,-4
1461663568478723,-3,2,16,21,11,2,1,-1
1461663568478723,0,-3,-3,1,2,-1,1,3
1461663568492744,0,-4,0,-1,-2,-1,0,0
1461663568492744,3,3,-6,-7,-2,0,-3,-3
1461663568499750,1,-4,-14,-22,-9,0,-3,-2
1461663568499750,0,0,9,14,2,0,0,0
1461663568514760,-1,8,1,5,4,1,-2,0
1461663568514760,0,-7,-4,-5,-4,-2,0,-2
1461663568522748,-4,-1,-7,-19,-11,-4,-2,-7
1461663568522748,-1,-4,1,7,-1,-2,-3,0
1461663568537758,2,1,-4,-11,-8,0,3,1
1461663568537758,2,4,13,37,18,4,2,1
1461663568538759,-9,-5,-4,-3,2,-4,-8,-2
1461663568538759,-1,-1,-6,-8,-4,-2,7,1
1461663568552862,-1,-5,1,-2,0,1,12,4
1461663568552862,0,-2,-6,-14,-7,1,-5,1
1461663568559895,4,0,-9,-14,-13,-16,-23,-6
1461663568559895,-11,-6,15,-6,-7,-12,-25,-8
1461663568574906,7,6,-3,31,15,1,1,-1
1461663568574906,-10,-7,1,-9,-7,-1,11,-3
1461663568582898,1,3,-12,10,4,5,9,1
1461663568582898,-2,1,-1,-6,-2,3,3,-1
1461663568597893,-6,-4,0,0,2,0,-5,-1
1461663568597893,8,-8,-6,-18,-14,0,4,0
1461663568598910,1,9,10,9,6,4,16,1
1461663568598910,1,7,-20,-28,-5,-3,-31,0
1461663568612919,-7,-21,18,30,5,0,26,0
1461663568612919,13,10,6,-2,-3,3,9,5
1461663568619923,-10,-18,-7,-24,-4,6,2,1
1461663568619923,10,5,0,0,2,-1,-5,1
1461663568634958,-14,-8,-19,-16,-4,-27,-67,-21
1461663568634958,-3,5,8,16,-4,-3,9,-6
1461663568642954,1,-7,-17,-26,-17,-5,6,-1
1461663568642954,6,5,18,21,5,-3,1,2
1461663568657964,-4,-3,-1,-3,-2,13,28,8
1461663568657964,-11,-15,1,-21,5,11,17,-4
1461663568658937,-3,3,9,17,0,-3,-13,-5
1461663568658937,-5,-3,-18,-50,-26,-18,-5,2
1461663568671946,17,21,-11,4,4,-15,-47,-7
1461663568671946,13,8,3,23,3,-2,0,-1
1461663568679966,-11,-32,-2,2,6,22,23,10
1461663568679966,-2,7,8,-15,-16,6,14,-15
1461663568695001,-8,-35,-7,-25,9,21,36,5
1461663568695001,-8,-18,-2,58,14,-8,-40,-6
1461663568702006,7,21,-1,-9,-9,-30,2,8
1461663568702006,-2,27,-4,0,-7,-8,-22,5
1461663568718018,-25,-12,-14,-18,-8,2,16,-10
1461663568718018,-13,7,-12,-41,-12,14,-7,-15
1461663568718978,21,9,37,38,8,11,4,5
1461663568718978,9,5,-2,7,9,-12,3,11
1461663568732990,12,13,-2,-10,-9,-23,-30,1
1461663568732990,-21,-13,1,-6,-12,-19,-42,-9
1461663568740022,2,15,11,0,-4,4,-16,-21
1461663568740022,-4,-7,-23,-19,6,11,42,0
1461663568755033,-2,-2,8,58,29,15,13,22
1461663568755033,10,-2,1,-6,9,11,23,-4
1461663568762025,-18,-77,2,-3,-13,-6,-11,-2
1461663568762025,9,-55,35,38,12,17,26,14
1461663568778036,-3,98,-8,-26,-14,-8,-42,-10
1461663568778036,5,-4,-14,-63,-48,-25,1,-1
1461663568780037,3,101,-17,63,55,8,-27,-7
1461663568780037,-16,16,-8,24,15,17,39,-7
1461663568792069,28,17,2,-23,-23,-13,25,2
1461663568792069,-26,100,-3,-4,-15,-14,-12,-8
1461663568800074,-16,-22,-1,-26,-7,18,76,1
1461663568800074,-4,-37,19,7,9,11,-62,-3
1461663568815086,20,-35,-7,37,11,-22,-24,-6
1461663568815086,0,-54,-36,-48,-2,-26,-55,1
1461663568822080,-18,-103,2,-14,-27,-16,37,-5
1461663568822080,-2,-65,1,50,14,11,-3,4
1461663568838091,-13,-128,9,-11,-8,13,54,5
1461663568838091,15,65,-17,-21,-8,3,1,-1
1461663568839065,8,62,-16,-31,-19,-14,-60,-17
1461663568839065,11,88,6,50,24,12,16,-2
1461663568852088,-28,43,49,-7,-4,19,54,23
1461663568852088,4,-19,10,39,29,3,7,3
1461663568860094,25,85,-17,-18,13,-4,-31,10
1461663568860094,-11,63,-21,-24,-28,-14,32,10
1461663568875105,-18,37,-17,46,4,1,-66,-10
1461663568875105,11,-15,34,-57,-17,4,15,6
1461663568882094,5,-25,-21,74,50,15,36,1
1461663568882094,16,-8,-21,-16,11,2,-2,-7
1461663568898124,-9,18,-2,-29,-19,-16,-31,-2
1461663568898124,-4,-46,12,59,15,37,124,15
1461663568906140,15,-21,-20,-22,-9,-11,-95,6
1461663568906140,-14,6,-20,-30,-31,-45,-26,-9
1461663568912115,-47,2,-6,17,10,-1,-21,-21
1461663568912115,28,-8,-26,-60,-20,-27,-80,-16
1461663568920134,12,-10,45,6,-10,2,28,-8
1461663568920134,20,-1,23,28,30,23,50,20
1461663568935190,23,16,-10,-19,-6,8,19,20
1461663568935190,-1,2,-11,4,5,18,44,-1
1461663568942144,-24,-28,-14,-67,-38,-7,13,0
1461663568942144,-20,-4,5,5,-4,-25,-60,-28
1461663568958156,-14,13,-6,-33,7,35,67,6
1461663568958156,32,-1,69,25,-12,-22,-83,-26
1461663568959155,40,-11,12,18,-4,-20,9,14
1461663568959155,-20,-3,26,-32,-8,3,-11,26
1461663568982166,12,12,-44,40,32,-17,-9,-5
1461663568982166,-25,-8,-21,13,44,47,91,7
1461663568983167,-52,-14,-48,-103,-68,-23,-78,-32
1461663568983167,5,13,52,42,-5,-23,-39,-41
1461663568995177,23,8,13,9,19,12,-9,22
1461663568995177,23,-16,24,40,5,22,80,28
1461663569002179,13,-10,-38,50,43,22,17,14
1461663569002179,-11,18,-6,-11,-17,-20,-64,-15
1461663569017206,19,35,-1,-51,-36,-24,11,3
1461663569017206,8,7,24,38,4,-20,-23,-16
1461663569025195,19,-7,-10,-73,-12,19,0,12
1461663569025195,-67,-17,-32,-25,10,56,127,6
1461663569032201,-50,-1,17,32,-14,-7,-68,-43
1461663569032201,17,-13,13,-103,-41,-40,-35,36
1461663569040207,54,-8,-47,120,95,16,-6,14
1461663569040207,19,4,-3,-18,5,-11,17,13
1461663569055217,3,8,-33,-47,-50,16,38,-8
1461663569055217,-19,-7,29,69,65,44,50,8
1461663569062221,-11,-4,34,34,-23,-25,-44,-37
1461663569062221,1,8,-7,32,2,-29,-72,-6
1461663569077232,-47,7,-100,-116,-23,5,72,15
1461663569077232,4,-26,-49,-19,-19,15,9,-7
1461663569085237,5,-18,66,100,69,14,-8,-3
1461663569085237,1,9,-15,-20,3,-10,7,13
1461663569092243,50,9,85,-53,-34,1,15,-4
1461663569092243,-40,-27,-64,-111,-58,-13,-24,-3
1461663569100248,32,-2,3,-24,4,-4,-12,-4
1461663569100248,-64,2,-2,24,17,14,98,13
1461663569115259,-57,4,16,16,14,22,-79,6
1461663569115259,37,9,9,108,41,-37,-78,-31
1461663569122263,47,-8,9,-89,-72,-21,83,17
1461663569122263,-21,1,5,-75,-28,14,-107,-22
1461663569137273,-74,16,15,9,10,-22,20,-6
1461663569137273,68,-14,15,48,11,9,63,50
1461663569145279,45,-35,26,-58,-22,16,61,4
1461663569145279,38,18,-32,-53,12,36,-62,-3
1461663569152284,-56,26,-41,85,10,-59,-91,-31
1461663569152284,4,-11,9,68,-2,-37,-78,-23
1461663569160291,52,-27,47,-63,-39,16,74,28
1461663569160291,-50,-1,32,88,70,61,96,2
1461663569175300,19,16,-46,-42,-28,-52,-33,-15
1461663569175300,19,-1,-24,-89,-41,-32,-17,-11
1461663569182306,17,-27,-50,6,2,1,-32,11
1461663569182306,-25,-4,-3,-37,-53,10,-26,-49
1461663569197375,-36,20,41,83,17,-6,55,2
1461663569197375,29,-4,10,38,40,18,-73,3
1461663569205325,58,-21,-29,-15,-25,-56,-91,17
1461663569205325,71,19,24,-70,-39,-67,-14,20
1461663569220345,-37,10,-9,-33,23,32,20,8
1461663569220345,7,-26,24,-60,-29,20,32,-44
1461663569221334,-19,-12,-7,-96,-36,13,34,-21
1461663569221334,-54,0,0,90,78,27,-1,38
1461663569235405,-14,18,23,26,27,2,20,-11
1461663569235405,15,-15,-2,7,-3,28,80,28
1461663569242347,20,-14,24,42,30,68,67,51
1461663569242347,-28,7,-49,-44,-29,-66,-79,-40
1461663569257418,31,6,58,37,1,-27,-48,24
1461663569257418,2,-13,-79,11,12,11,22,-6
1461663569265423,-3,-1,-32,4,-18,-20,-36,-54
1461663569265423,-11,2,-21,-70,-92,-38,34,17
1461663569280434,15,5,82,55,65,78,86,69
1461663569280434,3,-3,-27,-27,7,-20,-66,-28
1461663569281391,52,4,62,43,43,15,7,53
1461663569281391,-27,3,-38,-89,-32,12,-33,-28
1461663569295449,-37,2,-115,-1,-31,-48,-63,-94
1461663569295449,47,-9,-39,-61,-26,11,-11,-8
1461663569302391,3,-4,65,-33,1,1,24,-4
1461663569302391,73,0,36,117,84,21,35,54
1461663569317413,-25,6,21,41,31,11,-14,-3
1461663569317413,19,-11,36,9,-28,-12,-18,21
1461663569324419,-15,12,-64,-10,3,-2,30,3
1461663569324419,-17,-4,17,-56,-43,-1,10,-15
1461663569348443,4,4,-42,-89,-70,-13,13,-29
1461663569348443,-30,-23,-16,62,56,16,23,-1
1461663569349424,-62,4,-19,61,11,-17,-117,-36
1461663569349424,13,-7,7,33,-20,-48,15,19
1461663569355428,41,1,-1,-92,-31,-13,-30,43
1461663569355428,2,0,6,7,21,-1,0,10
1461663569362445,35,0,-4,-61,-22,1,63,14
1461663569362445,-36,-1,66,49,42,93,-11,2
1461663569378461,-32,-1,11,3,-24,-65,-56,-48
1461663569378461,29,-3,-24,-118,-38,-46,-31,38
1461663569385461,-64,15,22,117,39,11,10,-16
1461663569385461,-31,6,-20,-63,-19,2,20,-52
1461663569400472,74,-13,26,-41,27,55,53,6
1461663569400472,-65,-15,9,58,28,6,-30,3
1461663569401461,34,4,-26,2,-24,-16,1,29
1461663569401461,-45,-1,-37,-20,-28,-18,44,-28
1461663569414469,106,0,9,18,-8,0,-24,11
1461663569414469,-8,-9,16,4,-10,1,-36,-16
1461663569422474,23,0,-19,-4,-6,9,-26,-1
1461663569422474,-8,10,-6,-1,-15,-68,-51,26
1461663569437498,-47,3,-10,-47,-16,4,-3,-32
1461663569437498,34,-19,40,-93,-61,35,94,30
1461663569444503,-56,-3,15,13,20,-40,-108,-73
1461663569444503,30,2,14,71,54,9,5,28
1461663569460541,53,-7,16,-81,-9,31,40,40
1461663569460541,-37,-4,-2,76,20,-24,15,19
1461663569461503,-101,1,-9,-47,-9,13,12,5
1461663569461503,7,0,14,16,-12,-13,-34,-75
1461663569474525,47,-6,30,108,22,12,36,-6
1461663569474525,20,2,-16,20,5,17,26,5
1461663569482589,40,9,23,21,21,-3,-4,26
1461663569482589,-24,-9,-6,-49,-14,16,62,8
1461663569497554,-39,-3,-24,-49,-20,35,-66,-22
1461663569497554,16,-1,11,10,-20,-58,-59,-51
1461663569505535,-48,3,6,1,-11,-23,-44,14
1461663569505535,23,2,-20,-34,-14,8,58,63
1461663569520545,-16,1,-6,33,25,17,35,20
1461663569520545,42,4,-35,-50,-32,-12,-8,-5
1461663569521545,-47,-10,-23,0,-24,-7,-18,-40
1461663569521545,20,2,-28,43,54,36,28,28
1461663569534554,-8,-13,4,11,56,-14,-13,25
1461663569534554,33,7,52,53,56,-5,-20,-1
1461663569542620,-4,8,11,-25,-11,-1,42,-31
1461663569542620,-15,-7,37,83,23,34,0,-24
1461663569557628,51,0,-11,-68,-30,-11,0,16
1461663569557628,-70,-3,-107,-96,-77,-17,1,-11
1461663569564635,9,-14,35,12,17,3,-22,-10
1461663569564635,-52,3,16,-38,4,0,15,19
1461663569582588,47,-8,-34,16,-3,6,3,5
1461663569582588,11,-9,-3,-1,-4,24,42,-11
1461663569582588,53,14,-28,-5,-17,-18,-52,20
1461663569582588,-7,7,-17,-2,-22,-68,-72,-26
1461663569594619,-65,11,16,-20,-38,-27,16,-9
1461663569594619,27,-10,1,-5,-5,36,55,-10
1461663569602621,-96,5,-46,-84,-58,-8,2,-32
1461663569602621,-34,-7,24,79,96,9,-56,22
1461663569617674,-36,7,-11,-6,14,-7,-12,12
1461663569617674,-3,-13,85,22,1,-5,1,0
1461663569624632,8,16,-3,-13,-13,17,48,1
1461663569624632,9,-1,-34,-128,-49,2,8,-8
1461663569640659,-65,-8,37,127,93,22,17,-12
1461663569640659,15,-3,18,5,17,-4,-21,33
1461663569641641,-20,8,-12,-40,-12,-3,0,4
1461663569641641,-2,-6,-7,-19,-30,4,2,-57
1461663569662661,-30,0,-1,-31,-6,14,54,25
1461663569662661,-10,-9,-33,-10,-7,-6,-37,-45
1461663569663662,-28,2,4,42,21,13,30,25
1461663569663662,116,3,-13,-3,-9,-22,-89,32
1461663569677672,-63,12,6,-20,-29,-48,-11,-18
1461663569677672,-9,-19,-22,-52,-32,-14,-34,-8
1461663569684677,17,5,21,57,35,19,10,7
1461663569684677,-22,-5,7,15,-1,22,50,1
1461663569700712,96,-9,-10,-46,8,14,-11,17
1461663569700712,4,3,53,-5,-3,-6,-4,-4
1461663569701687,-22,3,-49,-46,10,6,27,-1
1461663569701687,-26,1,38,-28,6,13,12,5
1461663569714681,27,0,-4,110,65,13,-20,-3
1461663569714681,-22,-3,-12,40,39,5,-1,-6
1461663569722745,17,4,-6,-75,-53,-13,55,0
1461663569722745,-8,3,5,68,7,38,71,10
1461663569745786,-48,-8,-25,-67,-56,-11,-3,2
1461663569745786,8,-6,-27,4,8,-29,-85,-23
1461663569746768,20,7,29,24,3,-37,-69,-17
1461663569746768,-42,1,-36,-36,-28,-23,15,25
1461663569760787,16,-9,9,2,-6,-1,-8,-12
1461663569760787,25,4,-1,-11,-13,36,51,-16
1461663569761788,55,3,-1,2,-2,-8,-31,7
1461663569761788,-20,-2,-20,-26,26,41,97,38
1461663569774797,24,3,22,10,0,1,-36,11
1461663569774797,-14,-10,-2,59,44,-22,-68,-40
1461663569782795,13,4,19,-1,2,-7,-15,-10
1461663569782795,-29,5,26,35,6,-4,-3,-8
1461663569797833,72,-6,13,-7,-9,13,32,11
1461663569797833,-40,1,-3,-27,-16,1,20,6
1461663569804812,-35,9,1,-17,-4,6,10,-17
1461663569804812,-1,-8,-15,-39,-13,-18,-29,8
1461663569820810,-4,-5,10,27,-3,-3,-10,-4
1461663569820810,29,1,-5,-20,-5,-13,2,-6
1461663569821811,11,1,-18,10,14,-7,6,14
1461663569821811,-20,-8,-6,-6,-19,5,-47,-11
1461663569834859,22,-21,-25,-23,-19,-34,-56,-29
1461663569834859,-14,-14,-14,-17,-10,22,44,-4
1461663569842854,3,0,1,20,7,-30,-23,3
1461663569842854,-7,-9,-27,-51,-30,38,16,3
1461663569857867,-12,-11,20,34,27,26,5,-6
1461663569857867,22,10,12,-53,-27,-24,-4,8
1461663569864870,0,11,9,33,45,9,27,4
1461663569864870,-6,7,10,16,17,-25,-27,-9
1461663569880868,-19,-4,-22,-9,5,12,27,-2
1461663569880868,7,9,20,32,-5,10,6,-2
1461663569881869,5,0,7,24,5,11,-1,4
1461663569881869,12,-16,-2,-8,-13,-23,-26,-2
1461663569894901,-16,-128,-20,-27,-22,0,2,-2
1461663569894901,11,-17,-7,5,1,-20,-3,5
1461663569902883,-10,105,2,-17,-7,10,-2,3
1461663569902883,1,74,8,34,6,-11,-11,-13
1461663569917882,-19,16,7,-3,-3,-4,19,14
1461663569917882,-34,127,-20,-15,-2,14,28,5
1461663569932918,-27,72,-8,-1,-11,12,-21,-8
1461663569932918,12,42,-1,-9,-11,-16,-27,5
1461663569940924,29,18,-2,-20,-9,7,26,0
1461663569940924,-58,95,-9,-11,-1,-29,-48,-16
1461663569941904,-61,-24,-48,-25,-11,-4,2,-5
1461663569941904,18,-89,58,71,38,3,4,-2
1461663569954936,27,-93,6,32,16,0,3,-2
1461663569954936,18,-31,6,34,22,24,27,10
1461663569962927,-30,-5,-2,-6,-8,3,13,0
1461663569962927,16,-68,-34,-58,-31,-13,-10,-3
1461663569976937,29,-31,3,-3,-11,-3,-5,-9
1461663569976937,-5,40,-2,-3,0,4,-4,1
1461663569984942,-31,-19,4,0,5,2,-12,-4
1461663569984942,19,-76,-16,-7,-6,-29,-9,0
1461663569999996,20,-93,6,-11,-1,-1,0,1
1461663569999996,-1,-98,-4,-5,-4,-19,-27,-5
1461663570008000,-4,-118,15,1,3,11,3,9
1461663570008000,-14,-35,-7,7,-4,6,21,4
1461663570015006,-7,61,-16,-11,-8,-17,-27,-13
1461663570015006,-44,86,-5,-2,1,40,8,0
1461663570022983,-5,-59,12,8,6,-16,12,6
1461663570022983,47,5,5,7,-1,10,2,-3
1461663570037967,20,38,-12,-11,-6,-2,-3,-3
1461663570037967,-5,113,1,-5,4,-2,9,5
1461663570044997,-12,117,8,12,16,10,11,4
1461663570044997,23,97,12,14,3,-2,-2,2
1461663570059995,17,102,14,-4,-10,-2,-3,-3
1461663570059995,-14,40,-3,-9,1,-1,-2,1
1461663570068000,-21,49,-13,21,6,3,6,3
1461663570068000,-2,16,-27,-12,-5,2,-8,-9
1461663570075005,7,27,3,-6,-7,-11,-4,-4
1461663570075005,-16,-2,0,2,-1,-3,0,5
1461663570082006,-24,8,12,-6,-8,-8,0,-4
1461663570082006,25,17,4,2,5,20,3,2
1461663570097025,13,-7,-3,-3,-1,4,0,3
1461663570097025,-19,-5,0,0,0,-7,-3,1
1461663570105042,-13,-27,-5,-5,-4,-21,-10,-3
1461663570105042,16,-22,1,3,4,-1,-5,-2
1461663570120035,5,-21,-9,-8,-6,4,1,-1
1461663570120035,-12,-63,-4,-1,-4,-8,-2,2
1461663570128086,-8,-17,6,-3,1,10,5,0
1461663570128086,11,-35,-6,-1,2,0,1,-4
1461663570143062,6,-29,-5,-4,2,-4,-2,-2
1461663570143062,-9,4,6,13,-1,-2,0,2
1461663570144040,-14,0,-7,-24,-15,-3,-2,-5
1461663570144040,12,-16,11,17,8,-5,-3,-1
1461663570157073,5,3,-5,5,0,1,-5,-2
1461663570157073,-14,2,-5,-2,1,4,-1,2
1461663570165078,-7,17,0,-8,1,7,2,0
1461663570165078,11,10,0,-1,-2,-3,-4,-3
1461663570180076,5,8,-6,-5,-7,-9,-4,-2
1461663570180076,-9,5,2,1,-1,-1,0,3
1461663570188105,-13,-7,-3,2,1,17,3,0
1461663570188105,12,7,-1,-6,-6,-7,-2,-4
1461663570203080,3,-4,-2,0,-2,2,1,-1
1461663570203080,-11,-11,-3,-7,-5,0,-1,-1
1461663570211101,-2,5,9,5,2,-7,-2,1
1461663570211101,5,-19,0,2,1,-4,-1,-3
1461663570219091,0,-3,-3,-3,-2,1,0,-1
1461663570219091,-8,-4,-4,-1,0,-1,-1,2
1461663570225112,-2,15,1,1,2,-1,1,-1
1461663570225112,6,14,-4,-5,-6,-1,0,-1
1461663570240108,4,7,3,4,0,0,-3,-2
1461663570240108,-6,3,3,5,5,4,0,2
1461663570248142,-1,5,2,1,1,-2,-1,0
1461663570248142,0,-14,-13,-10,-4,-4,-3,-4
1461663570263142,-2,-8,8,15,3,1,1,-3
1461663570263142,-4,5,-9,-16,-6,-2,1,0
1461663570264143,-6,4,14,19,6,2,-2,-2
1461663570264143,5,8,-1,-3,-1,-5,2,-2
1461663570277152,3,7,1,-8,-4,-2,1,-1
1461663570277152,-6,2,-4,2,0,0,0,-2
1461663570285156,-4,-3,-7,-11,-8,-7,-2,1
1461663570285156,5,-2,1,0,-2,-2,-4,-4
1461663570301150,1,-9,-7,-5,-1,0,0,1
1461663570301150,-7,-19,-1,-2,-2,-4,-2,-1
1461663570308194,-3,-6,-5,-2,0,1,1,1
1461663570308194,3,3,3,5,2,2,0,0
1461663570323177,3,-1,-5,-6,-4,0,1,0
1461663570323177,-2,-5,1,4,3,-1,-1,0
1461663570324178,-2,-1,-1,-1,0,2,2,-1
1461663570324178,2,-1,0,3,3,-2,0,0
1461663570337192,1,-2,-4,-11,-6,-1,-3,-3
1461663570337192,-6,-6,-8,-1,1,-2,0,-2
1461663570345198,-1,1,8,10,3,-1,-1,2
1461663570345198,1,3,-2,-16,-10,-2,-1,-2
1461663570360203,3,1,3,8,8,0,2,-1
1461663570360203,-7,-6,-12,-7,-5,0,-2,-3
1461663570368209,-2,5,6,7,0,0,-1,0
1461663570368209,2,0,3,5,1,0,-1,0
1461663570383220,1,2,-1,-5,-2,1,-1,0
1461663570383220,-8,-4,-1,-4,-5,-3,-3,-2
1461663570384207,-3,1,-4,-5,-3,-5,-2,-1
1461663570384207,1,4,2,0,-1,0,-1,-2
1461663570397257,1,2,1,-1,0,1,-4,-3
1461663570397257,-4,-3,-1,1,0,-1,-3,-2
1461663570405262,-4,-2,-7,-5,0,1,0,-3
1461663570405262,4,1,2,0,-1,2,-1,0
1461663570420233,2,-2,-2,-2,-1,-2,-2,-2
1461663570420233,-4,0,4,3,1,0,1,-1
1461663570428279,-3,-1,-4,-7,-3,0,-1,-1
1461663570428279,3,0,1,3,1,-2,1,1
1461663570443279,1,-5,-6,-6,-4,-2,-2,-3
1461663570443279,-5,-7,-2,-6,-3,0,-1,0
1461663570444253,-1,-3,-6,-11,-6,-3,-1,1
1461663570444253,-2,-6,-3,-8,-3,-4,-3,-2
1461663570457291,2,-7,3,12,7,3,1,-1
1461663570457291,-2,2,5,1,-1,-2,-2,0
1461663570465295,-4,-15,-7,-4,-1,-1,-2,0
1461663570465295,3,5,-3,-8,-8,-4,0,-1
1461663570480291,-2,-7,-4,3,-1,-2,-1,0
1461663570480291,-5,-5,0,3,-2,-1,-1,-3
1461663570488283,-2,5,4,2,1,-2,-1,2
1461663570488283,3,-1,-2,-1,-1,-1,-1,2
1461663570503293,3,0,-2,-4,-3,-1,-2,-3
1461663570503293,-2,4,4,2,0,-1,-1,-1
1461663570504307,0,0,-2,1,-1,-1,-1,0
1461663570504307,0,-8,-3,0,0,0,0,-1
1461663570517341,0,1,1,-6,-4,0,0,-3
1461663570517341,-5,-7,-7,-5,-3,-1,-1,1
1461663570525307,0,-1,3,-2,-1,-1,1,0
1461663570525307,0,-2,1,0,-1,1,0,-2
1461663570540318,1,0,1,8,1,-1,0,0
1461663570540318,-1,2,-5,1,1,1,-2,-1
1461663570548349,-5,-2,3,4,-3,-1,-2,-1
1461663570548349,4,-2,2,5,5,0,0,0
1461663570563394,1,6,1,-28,-15,-4,-3,0
1461663570563394,-9,-10,-8,20,7,-1,-2,-3
1461663570564342,2,3,6,21,15,3,3,2
1461663570564342,2,-5,0,2,-1,-3,-2,-1
1461663570579365,-2,-1,-3,-1,0,1,-2,-4
1461663570579365,-3,-1,-1,-17,-8,-6,-2,0
1461663570585415,-5,0,-5,-11,-6,-2,-2,0
1461663570585415,3,1,-1,6,1,-2,-1,0
1461663570601395,0,-2,-5,-6,-5,-3,-1,-2
1461663570601395,-9,1,2,-2,1,0,0,-1
1461663570608430,-4,-6,-3,1,0,0,-2,-3
1461663570608430,1,1,0,-6,1,0,1,-1
1461663570623379,1,-3,-4,2,0,-1,1,-3
1461663570623379,-1,-3,4,0,-2,-2,-1,-2
1461663570624381,-1,1,-8,-12,-2,-2,-1,0
1461663570624381,-3,-4,-1,5,0,-1,-2,-2
1461663570637393,4,0,4,5,4,2,-1,0
1461663570637393,-2,-1,-1,0,-1,-3,0,0
1461663570645424,-2,-2,-5,-7,-4,-2,-3,0
1461663570645424,1,0,-2,-13,-3,-1,-1,-1
1461663570660422,-3,-8,3,22,6,2,0,-1
1461663570660422,0,-1,-1,-2,-1,0,0,0
1461663570668428,-4,-2,-3,-5,-3,-1,1,1
1461663570668428,1,1,2,2,-2,-3,-1,0
1461663570683431,0,-3,-2,-3,-3,-5,-1,-3
1461663570683431,-1,1,0,-11,-2,-1,-2,-1
1461663570684433,-4,4,8,8,4,0,1,-2
1461663570684433,-2,-1,-1,1,0,0,0,-2
1461663570697468,-1,0,-4,-7,-1,-1,-1,-2
1461663570697468,0,-1,0,1,-2,-2,-1,0
1461663570704473,2,-2,-1,-2,-1,-1,-1,-1
1461663570704473,3,-2,-1,1,0,1,1,0
1461663570720460,0,-1,-5,-4,-2,-2,-1,-2
1461663570720460,-1,1,-4,-11,-5,-4,-2,-1
1461663570728464,0,-1,9,13,3,0,0,0
1461663570728464,2,0,-5,-6,-3,1,0,1
1461663570743475,2,-4,1,11,3,1,-1,-3
1461663570743475,-9,-4,-8,-9,-4,-3,-3,-1
1461663570743475,-3,-4,1,7,1,-2,-2,-2
1461663570743475,1,2,-3,-4,0,-1,1,-1
1461663570757532,-1,5,0,-2,-3,-2,-2,-1
1461663570757532,-4,-3,2,4,0,0,-3,0
1461663570773513,-3,2,-2,-3,-1,1,-1,-1
1461663570773513,-1,-1,0,1,1,-2,0,-1
1461663570780518,0,0,0,-4,-3,0,-1,-2
1461663570780518,1,-1,-2,1,2,-1,1,-2
1461663570788526,-2,-1,-3,-5,-3,-2,0,-1
1461663570788526,2,0,1,2,0,0,-2,-1
1461663570803520,0,-2,-4,-6,-4,-4,-2,-2
1461663570803520,-3,0,2,0,-1,0,-3,0
1461663570803520,-3,-2,-3,-3,-2,-1,-1,-2
1461663570803520,1,2,-1,3,3,0,1,-1
1461663570817530,-2,-5,-6,-8,-5,-1,-3,-1
1461663570817530,-2,-1,-5,-8,-4,-1,1,0
1461663570824534,-1,-1,9,14,1,-1,-1,0
1461663570824534,2,-2,-1,1,1,0,-1,0
1461663570839589,1,-2,-2,-3,0,0,-3,-3
1461663570839589,-3,-2,-1,-7,-5,-3,-2,1
1461663570848597,-2,-3,-10,-14,-5,-2,-3,0
1461663570848597,1,-4,6,7,1,1,1,0
1461663570863654,1,1,-1,1,1,0,1,-3
1461663570863654,-3,0,3,5,4,-1,0,0
1461663570863654,-1,2,-3,-9,-5,0,-1,-1
1461663570863654,0,-2,-3,-1,-2,-2,-2,-2
1461663570877652,0,-1,-2,-3,-2,-2,-2,-3
1461663570877652,-3,-5,-3,-1,-2,-1,0,-1
1461663570884710,0,-1,0,-2,-1,-1,0,2
1461663570884710,-1,1,0,1,0,-1,-1,-1
1461663570908727,-1,-1,-2,-6,-4,-1,-2,-1
1461663570908727,-3,0,2,6,0,0,0,-1
1461663570909670,-1,-2,-1,0,0,-2,2,0
1461663570909670,2,0,0,-4,-1,0,0,0
1461663570922679,-1,-3,-6,-4,-2,-3,-2,-2
1461663570922679,-3,0,2,1,3,0,-2,-2
1461663570930745,1,0,8,12,1,-2,-1,-1
1461663570930745,1,0,-4,3,3,-1,0,0
1461663570937703,1,-1,-3,8,0,0,0,-1
1461663570937703,-1,-3,-6,-1,-1,-1,-1,-1
1461663570944707,1,1,-4,-11,-5,-2,0,-1
1461663570944707,2,-2,1,5,-1,-1,-2,-1
1461663570959711,-4,-4,4,4,3,1,-1,1
1461663570959711,-3,1,-1,-1,-1,-1,-2,1
1461663570968740,-1,-3,-5,-3,0,-1,-1,0
1461663570968740,-1,-2,-2,-6,-3,-2,-1,-2
1461663570982723,-1,0,-3,-4,-1,-1,-1,-3
1461663570982723,-2,-1,3,2,-1,0,1,-2
1461663570990728,-1,1,-3,-2,0,0,-1,1
1461663570990728,0,-5,-2,0,0,-1,0,-2
1461663570997733,0,-6,0,-2,-1,-2,-1,0
1461663570997733,-3,2,-1,-1,0,0,0,-1
1461663571004737,-2,0,1,2,1,0,0,0
1461663571004737,2,0,-3,-9,-2,-2,0,0
1461663571019748,0,-1,-16,-22,-9,-5,-4,-2
1461663571019748,-4,1,27,30,7,-1,-2,1
1461663571027753,-1,-3,-7,-6,-1,2,0,0
1461663571027753,2,5,6,13,2,0,0,-1
1461663571051834,-1,-3,-4,0,1,-1,-2,-1
1461663571051834,-4,-8,-11,-13,-5,-2,-2,-1
1461663571051834,-1,1,4,-4,-3,-1,-2,-3
1461663571051834,1,0,-1,-7,-6,-1,-1,-1
1461663571057831,-2,3,5,3,-2,-2,-3,-5
1461663571057831,-2,0,-5,-4,-3,-2,-2,0
1461663571064838,-3,-5,-7,-5,0,0,-1,-1
1461663571064838,2,0,-3,-5,-3,1,0,0
1461663571079849,0,2,-4,-7,-4,-2,-3,-1
1461663571079849,-4,-6,-3,10,-1,-1,-1,-2
1461663571087796,2,1,3,1,-2,-2,1,-2
1461663571087796,-2,-4,-2,2,2,-1,-2,-1
1461663571102815,1,1,-6,-7,-2,-2,1,-2
1461663571102815,-6,-3,-2,-4,-2,-3,-1,-1
1461663571110883,-1,1,1,-1,1,-1,-1,0
1461663571110883,-2,-2,-1,-5,-3,-1,-3,-1
1461663571125829,0,-4,1,0,-3,-1,-2,-2
1461663571125829,-1,0,-4,-9,-2,-1,0,-1
1461663571126849,-1,-1,-2,1,0,0,0,-1
1461663571126849,1,-2,-2,3,3,0,0,-2
1461663571139859,-3,-4,0,0,-1,-1,0,-2
1461663571139859,-3,2,0,-1,-3,-2,0,-2
1461663571147864,-3,-1,1,2,0,-1,1,0
1461663571147864,2,1,-3,-6,-2,0,0,-1
1461663571162864,-1,-2,1,2,-2,-2,-3,-1
1461663571162864,-3,0,-8,-15,-2,1,-1,0
1461663571170870,-2,0,4,-5,-4,1,0,-1
1461663571170870,1,1,2,19,11,2,2,0
1461663571185874,-1,-3,0,2,-2,-3,-1,-3
1461663571185874,-3,-1,4,-2,-1,-3,-1,0
1461663571186882,2,-1,-4,-5,-2,-2,-1,-1
1461663571186882,2,-2,-3,-8,-5,-3,-1,-1
1461663571199914,-2,0,4,8,0,0,-1,-2
1461663571199914,0,2,-3,-5,-3,-1,0,0
1461663571207919,-5,-4,-8,-2,-2,-2,-1,-1
1461663571207919,-1,-1,1,0,-2,-2,-1,-2
1461663571222945,0,0,0,2,-1,-1,-1,-2
1461663571222945,-3,0,-2,0,-2,-2,-1,-1
1461663571230953,1,1,2,5,2,-3,0,1
1461663571230953,4,-2,-2,0,-2,0,-2,-1
1461663571245990,-2,-2,-4,-11,-4,-2,-1,-1
1461663571245990,-1,0,1,5,2,1,1,1
1461663571246962,-1,1,-13,-15,-1,-1,-1,-1
1461663571246962,1,-4,10,9,-2,-3,-2,-1
1461663571259989,-1,-3,3,4,-1,-2,-1,-1
1461663571259989,-2,-4,-2,-5,-1,-2,-1,-1
1461663571267996,-1,2,0,-2,1,0,-1,0
1461663571267996,1,-1,-2,1,0,0,0,-1
1461663571281998,1,-3,-2,0,-1,0,0,0
1461663571281998,-4,0,1,3,0,-2,-2,0
1461663571291004,0,-1,0,-5,-2,0,0,0
1461663571291004,0,1,-2,-6,-2,-1,-2,-1
1461663571306061,-2,-3,-1,0,0,0,-3,-2
1461663571306061,-2,-1,-2,-2,0,-1,0,-1
1461663571306061,-1,-2,3,3,0,0,0,-2
1461663571306061,0,0,-1,1,2,-1,1,-2
1461663571329020,2,0,-8,-16,-5,-3,-1,-2
1461663571329020,-6,-3,7,15,1,0,-1,-2
1461663571330021,0,0,2,8,3,0,0,1
1461663571330021,1,-2,-3,-8,-2,0,1,0
1461663571342028,-2,-3,-2,-2,-4,-2,-2,-3
1461663571342028,-5,0,-6,-7,1,-1,-1,0
1461663571351047,-1,0,2,4,1,-1,0,0
1461663571351047,1,-2,-5,-14,-3,-1,-1,-1
1461663571366057,-2,0,9,13,1,0,-2,-2
1461663571366057,-1,-1,-5,2,0,0,-1,1
1461663571366057,1,-2,1,7,1,1,0,0
1461663571366057,0,0,-4,-12,-2,-1,-1,0
1461663571380068,-1,-1,2,6,-1,-1,-1,0
1461663571380068,-4,3,4,1,-1,0,-1,1
1461663571388073,-1,0,-1,-2,-1,0,1,0
1461663571388073,0,0,-10,-9,-1,-1,-1,-2
1461663571402111,-1,-3,0,-4,-2,-1,-1,-1
1461663571402111,1,0,4,15,5,1,0,0
1461663571411117,-1,-2,-3,-3,-2,-2,-2,-1
1461663571411117,-1,-1,1,-1,-1,0,-1,-1
1461663571426087,-3,-2,-5,-9,-3,-3,0,-2
1461663571426087,-1,2,1,4,4,0,1,1
1461663571426087,-2,-2,-3,1,-1,0,0,-1
1461663571426087,1,-1,1,2,0,0,-1,-1
1461663571440109,0,0,-4,-1,0,-1,-2,-2
1461663571440109,-3,-4,-4,-9,-5,-1,-2,-2
1461663571447162,-2,-1,-2,-2,1,-1,0,-1
1461663571447162,-2,-1,1,4,0,-2,-1,-1
1461663571462179,1,1,-5,-7,-2,-1,-1,0
1461663571462179,-2,-2,-6,-9,-3,-1,-1,-1
1461663571471142,1,1,8,14,3,1,-2,-1
1461663571471142,-1,-1,-6,-9,-1,-2,-2,-2
1461663571486130,-3,-3,5,11,2,1,0,-2
1461663571486130,-2,-1,-3,-4,-1,-3,-2,0
1461663571486130,-1,-2,-3,-6,-4,-2,-1,0
1461663571486130,2,1,2,4,0,-2,-2,0
1461663571500199,-2,-2,0,3,-1,-1,-2,-2
1461663571500199,-3,-2,-2,-3,-3,-3,0,0
1461663571507204,0,0,-5,-2,1,0,0,0
1461663571507204,1,-1,4,3,1,1,0,-1
1461663571522171,-1,-2,-3,-9,-2,-2,-3,-2
1461663571522171,-2,0,1,0,-4,-2,-1,-1
1461663571531162,-2,0,1,-1,0,1,-2,-1
1461663571531162,1,0,0,3,-1,-1,0,-1
1461663571546175,-1,-3,-6,-7,-4,-4,-2,-3
1461663571546175,-1,2,1,2,3,0,1,1
1461663571546175,-2,0,0,1,-2,-3,-2,-2
1461663571546175,1,-1,-1,0,-1,0,0,0
1461663571560212,-3,-3,-3,-3,-1,-2,-2,-3
1461663571560212,-2,0,-6,-20,-6,-1,0,-1
1461663571567250,2,3,10,26,8,-1,1,1
1461663571567250,0,-2,1,2,-2,-2,-1,0
1461663571582230,1,-1,-1,1,0,-1,-1,-2
1461663571582230,-2,0,-3,-5,-1,0,0,-1
1461663571591212,-4,-3,-7,-13,-4,1,0,-2
1461663571591212,-1,-2,3,0,-5,-3,-2,-1
1461663571606224,-2,-3,-5,-8,-2,-1,-1,0
1461663571606224,-2,0,6,13,1,0,-1,-1
1461663571607218,0,0,0,-3,0,-1,-1,-1
1461663571607218,0,-1,0,2,-1,-1,-1,-3
1461663571621227,-2,-3,-1,-4,-2,-1,-2,-1
1461663571621227,-2,-1,1,-3,-2,0,-1,1
1461663571627246,-2,-3,-7,-6,-3,-2,-3,-3
1461663571627246,3,2,2,3,6,4,1,1
1461663571642242,-1,0,0,4,0,-2,-3,0
1461663571642242,-2,2,-3,2,3,-1,-1,0
1461663571650285,-1,-2,0,-3,-1,-1,0,0
1461663571650285,2,-1,-4,-11,-8,-3,-2,-3
1461663571665297,0,-1,-2,5,2,-1,-1,-2
1461663571665297,-3,-2,-1,-1,0,-1,-1,0
1461663571666273,0,-1,1,1,-2,-2,-1,2
1461663571666273,-1,-1,-2,-2,-2,-1,-1,-3
1461663571688275,0,2,1,0,1,1,-1,-1
1461663571688275,-3,-4,0,4,0,-1,-1,-1
1461663571689289,0,0,1,-5,-2,0,0,1
1461663571689289,1,-1,-4,-4,-3,-2,-1,-1
1461663571702342,-1,0,-5,-4,-1,0,-2,0
1461663571702342,-4,-4,6,3,-4,-3,-1,-3
1461663571710347,1,-1,-5,-3,0,1,0,-1
1461663571710347,0,-2,3,12,4,1,-1,0
1461663571725312,-1,-2,-8,-15,-5,-3,-2,-2
1461663571725312,-1,1,5,12,1,1,0,2
1461663571726299,-1,-1,-2,-2,0,0,0,0
1461663571726299,1,-3,-3,-4,-3,-2,-1,-1
1461663571740310,0,-2,-1,1,0,1,-1,-2
1461663571740310,-1,-2,-4,-8,-3,-1,-1,0
1461663571747374,-2,1,1,5,1,-1,0,-1
1461663571747374,3,0,-3,-5,-2,-1,0,-2
1461663571762332,-2,-2,0,3,-2,-1,0,-1
1461663571762332,-1,1,-3,-7,-3,-1,-1,-1
1461663571770340,0,0,4,4,-1,0,0,0
1461663571770340,0,-1,-2,-1,2,0,-1,1
1461663571785370,-1,-2,-2,2,-3,-2,-1,-3
1461663571785370,-2,-2,-3,-6,-1,1,0,0
1461663571786344,0,-2,0,-1,-1,-1,-2,0
1461663571786344,1,1,4,5,1,0,0,0
1461663571800370,-3,-2,-6,-3,0,-1,0,-1
1461663571800370,-2,-1,-5,-1,1,0,-1,1
1461663571807377,3,2,0,-18,-6,-2,-2,-1
1461663571807377,-2,-3,0,13,2,-2,-2,-3
1461663571822380,-2,-2,6,15,4,0,-1,-2
1461663571822380,0,1,-3,-2,1,-1,0,0
1461663571830435,0,1,0,1,1,1,0,0
1461663571830435,0,0,-1,-15,-7,-2,-2,-3
1461663571845443,-2,-3,-5,-1,-2,-3,-2,-2
1461663571845443,-2,-1,2,4,4,1,-1,0
1461663571846400,0,-1,2,7,1,1,0,-2
1461663571846400,1,-1,2,1,0,-1,-2,-1
1461663571860453,-1,0,2,-4,-2,-2,-3,-3
1461663571860453,-4,-1,-2,-2,-1,0,0,-1
1461663571867458,-2,0,-2,-2,-1,-3,0,-2
1461663571867458,0,-3,-4,3,3,0,-1,-4
1461663571884420,-2,-2,-5,-10,-5,1,-2,-1
1461663571884420,-4,-1,0,-1,-1,-3,-2,-1
1461663571890445,-1,-2,0,6,0,-1,-1,-1
1461663571890445,0,0,2,-1,0,-2,0,-2
1461663571905457,-3,-1,0,3,-2,-3,-2,-1
1461663571905457,0,0,-2,-2,0,-1,-1,1
1461663571913449,-1,-2,0,-1,-1,-1,-1,-1
1461663571913449,0,-4,-6,-10,-4,-1,0,0
1461663571920451,0,-3,-4,-15,-5,-3,-2,-1
1461663571920451,-2,1,7,14,5,0,-1,0
1461663571927458,0,0,1,-1,1,-2,0,1
1461663571927458,1,1,1,4,1,1,-1,-2
1461663571942452,-1,-4,-7,-4,0,0,1,-2
1461663571942452,-4,-4,-9,-17,-8,-1,0,-3
1461663571950458,-2,0,8,14,3,0,-1,-2
1461663571950458,0,1,-1,0,0,0,1,-1
1461663571965469,-2,-2,1,0,-1,-4,-2,-2
1461663571965469,2,0,-1,-1,0,-2,1,1
1461663571973500,-1,-5,-7,-8,-4,-1,-1,-2
1461663571973500,0,-2,-5,-12,-6,-1,-3,-2
1461663571980490,-2,1,3,10,3,1,-1,0
1461663571980490,-2,0,-3,-5,-2,-3,-1,0
1461663571987509,-1,0,-4,-14,-7,-1,-2,-2
1461663571987509,-1,-1,1,7,-2,-2,-2,-3
1461663572002511,-1,-2,-1,-7,4,-2,-2,1
1461663572002511,1,3,-1,-1,-1,-2,-1,1
1461663572010518,2,0,-1,4,4,2,2,3
1461663572010518,0,-4,-2,1,0,-2,-1,-1
1461663572025513,-3,0,0,-7,-7,-4,0,-3
1461663572025513,-4,-2,-1,5,2,-1,0,0
1461663572033575,0,0,-5,-9,-5,-2,-1,0
1461663572033575,0,0,3,3,-3,-1,-2,0
1461663572039560,-2,-3,1,5,3,0,-3,-4
1461663572039560,-3,0,8,0,-2,-1,-2,0
1461663572047567,1,-2,-11,5,2,-1,0,-1
1461663572047567,0,-2,0,4,3,0,0,-1
1461663572062578,-5,-1,0,-2,-2,-1,0,-4
1461663572062578,-2,1,1,4,1,0,-2,-1
1461663572070558,3,0,4,-2,-1,0,1,1
1461663572070558,1,-2,-1,3,0,-1,-1,-1
1461663572084592,-1,1,-2,-4,-5,-1,-2,-1
1461663572084592,-3,-4,1,4,4,0,0,0
1461663572093589,0,-1,-1,1,2,0,1,1
1461663572093589,2,-3,-5,-3,-3,-1,0,2
1461663572108575,-2,-3,-1,-3,-3,-1,-1,0
1461663572108575,-3,0,-2,-5,-4,-2,-1,0
1461663572109573,2,2,-9,-14,-4,-2,-1,-1
1461663572109573,-4,-10,9,12,1,1,-2,-3
1461663572122580,-3,-1,0,0,0,-2,-2,-2
1461663572122580,-2,-3,-4,-9,-4,0,0,-2
1461663572130601,0,-3,2,-1,-4,-2,-2,-1
1461663572130601,2,6,0,10,5,1,1,-1
1461663572145598,-3,-8,0,4,1,-1,-2,0
1461663572145598,-2,7,5,1,-2,0,-2,1
1461663572153602,-1,-4,-6,-5,-1,0,1,0
1461663572153602,3,1,-2,-3,-8,-4,-3,-4
1461663572168650,-5,-6,-2,10,3,0,3,-4
1461663572168650,0,1,2,0,0,-1,3,2
1461663572168650,-2,-1,-1,0,1,0,0,0
1461663572168650,-1,0,-2,-2,0,4,7,0
1461663572183679,1,0,-3,-12,-8,-2,-5,0
1461663572183679,0,-1,-10,-9,-4,0,13,-2
1461663572190641,-6,-4,5,1,-3,-2,-3,-1
1461663572190641,0,-1,-6,-12,-2,-3,-19,-6
1461663572204698,-4,3,2,-3,-3,-4,8,-1
1461663572204698,2,-7,-8,-15,-6,-4,-25,-7
1461663572213650,-1,0,7,11,-6,-11,-7,-2
1461663572213650,3,8,3,-12,-5,-1,7,0
1461663572228655,2,-4,10,2,4,6,6,-1
1461663572228655,1,5,7,17,10,10,15,4
1461663572228655,0,10,-39,-52,-12,-7,-16,0
1461663572228655,-15,-30,-1,-1,-7,-12,-14,-10
1461663572242758,5,19,19,37,11,-1,-10,-4
1461663572242758,-5,-6,-5,-16,-4,4,34,6
1461663572250822,6,6,11,-7,-5,7,8,3
1461663572250822,8,-5,-27,-5,3,-2,-6,-4
1461663572264834,6,19,-1,-3,1,1,10,11
1461663572264834,1,-23,-14,10,-1,-6,-24,-5
1461663572273812,4,7,12,6,9,5,-5,1
1461663572273812,0,15,-5,-25,-6,-10,14,-1
1461663572287821,16,26,3,-20,-16,-14,-17,-4
1461663572287821,-26,-51,4,27,-5,-11,-35,-10
1461663572288822,-7,-34,1,10,4,8,11,8
1461663572288822,4,-10,-9,-25,-5,9,-5,-15
1461663572302803,-28,-27,-16,-20,-4,3,23,-3
1461663572302803,12,19,-10,-12,-2,-23,-15,2
1461663572310822,8,1,15,27,1,-3,4,7
1461663572310822,15,26,19,28,14,15,13,8
1461663572324831,-8,-6,-26,-65,-29,-10,-21,-13
1461663572324831,3,14,19,18,7,4,2,3
1461663572332834,-5,-33,-29,-16,-2,0,0,-4
1461663572332834,-17,12,25,24,13,20,44,4
1461663572347844,11,8,4,71,30,13,-10,-5
1461663572347844,9,9,-14,-27,-16,-18,5,9
1461663572348833,11,53,15,5,-2,-6,-18,0
1461663572348833,0,-15,-17,-20,-15,-11,11,8
1461663572362854,-9,36,19,3,-7,-7,-41,-12
1461663572362854,-21,-17,2,-12,2,16,42,7
1461663572370849,22,11,16,47,29,15,29,7
1461663572370849,-21,-26,-39,-28,-30,-47,-102,-13
1461663572384870,-3,-2,-15,-33,-20,-16,-17,-8
1461663572384870,-19,-17,-10,11,4,3,-6,-10
1461663572392865,-29,-18,9,-1,2,-5,-5,-9
1461663572392865,5,15,40,15,5,6,14,2
1461663572407914,27,-36,-10,5,6,31,105,31
1461663572407914,10,-47,-19,-34,0,22,-32,3
1461663572408876,-13,-75,6,-9,-2,-20,-39,-22
1461663572408876,14,83,30,47,9,9,21,8
1461663572422897,1,54,18,7,21,-9,-50,-11
1461663572422897,-8,85,4,-25,-16,-15,37,10
1461663572437897,3,104,-1,21,-4,11,-4,-2
1461663572437897,15,43,-65,-45,-11,-8,12,-9
1461663572444902,-17,-4,15,29,7,28,76,34
1461663572444902,-2,23,9,11,12,3,-74,-25
1461663572452911,16,-26,41,-1,2,-26,-20,-2
1461663572452911,1,-56,-24,-5,-1,22,36,11
1461663572467982,-18,-118,-29,-3,14,-5,-18,-28
1461663572467982,-6,-104,1,31,4,-30,-68,6
1461663572468939,42,99,5,-55,-40,-11,47,11
1461663572468939,-66,38,19,53,28,9,-25,-15
1461663572482955,40,47,50,-43,-44,2,26,-3
1461663572482955,-14,36,-34,56,47,20,21,5
1461663572490954,-27,-27,-9,-27,-20,-11,-26,-10
1461663572490954,16,-37,-2,-36,-12,2,57,13
1461663572505007,-22,-11,0,-28,-2,10,33,19
1461663572505007,22,8,0,-13,-11,9,-23,-25
1461663572513014,9,0,-48,-3,-11,-37,-71,-15
1461663572513014,8,-32,15,61,25,-1,76,28
1461663572527980,-16,-18,-1,34,15,-17,-128,-28
1461663572527980,28,35,20,-10,-18,-24,47,10
1461663572528960,-40,-14,-8,16,21,36,15,10
1461663572528960,7,-37,-6,-63,-27,11,33,2
1461663572542984,-19,-11,-12,-3,4,20,-30,-8
1461663572542984,41,26,2,-16,-12,-16,0,-5
1461663572550991,-44,7,5,-22,-18,3,-56,-4
1461663572550991,10,-16,25,-41,-17,-55,-120,-48
1461663572565044,52,13,-36,28,33,19,100,30
1461663572565044,30,9,45,37,16,17,4,18
1461663572573005,0,-6,-48,53,43,28,94,29
1461663572573005,4,-20,34,43,17,26,84,37
1461663572588001,-35,-2,-17,-19,-22,-20,-103,-30
1461663572588001,-70,6,2,-101,-60,-20,-17,-38
1461663572589017,-22,-20,-76,51,39,5,5,-3
1461663572589017,74,-4,-11,-49,-22,-6,-43,-6
1461663572603024,-28,-5,3,97,35,3,31,27
1461663572603024,-72,1,-29,24,10,-22,-41,-31
1461663572610080,104,6,56,1,-6,7,21,13
1461663572610080,40,4,0,-19,-6,3,-16,12
1461663572625057,-62,-11,-4,-33,-17,-22,-16,-17
1461663572625057,-22,-3,-44,-98,-56,6,42,-36
1461663572633063,6,-5,38,108,73,14,-33,-8
1461663572633063,90,-10,-29,-14,-19,-48,-99,-35
1461663572648074,54,0,-10,-60,-23,-8,22,19
1461663572648074,-34,9,8,51,32,6,-26,7
1461663572649075,-79,-6,-52,-128,-65,-6,23,-34
1461663572649075,24,-9,26,92,43,39,13,9
1461663572662069,58,-7,9,57,37,33,75,52
1461663572662069,-8,15,-9,-37,-17,-5,-16,-14
1461663572670075,-22,13,-28,-52,-43,-39,-11,-15
1461663572670075,-64,-15,62,45,27,14,3,-6
1461663572685086,-6,-5,-44,-80,-41,-22,-22,-5
1461663572685086,46,7,19,13,8,20,13,38
1461663572693077,30,-2,0,-32,-45,-40,-40,2
1461663572693077,9,-16,9,-75,-28,-7,14,20
1461663572716092,-64,-5,15,45,41,27,11,-11
1461663572716092,-32,-6,-1,29,39,45,29,-6
1461663572717094,-9,29,6,-42,-24,-36,-43,-44
1461663572717094,51,-36,-24,19,-18,-7,21,4
1461663572722109,127,-22,8,-55,-14,-8,-72,9
1461663572722109,-72,18,-52,-30,-22,-63,-44,7
1461663572730142,-125,14,56,75,21,15,-9,-32
1461663572730142,34,-29,-31,10,14,9,18,1
1461663572745125,74,-14,43,-95,-58,19,69,22
1461663572745125,56,15,-2,103,74,14,19,20
1461663572753121,-37,28,-19,-78,-17,-7,50,22
1461663572753121,6,-25,-59,-19,-12,-2,-47,-24
1461663572768188,-50,-3,61,27,0,-5,0,-23
1461663572768188,55,13,44,-28,-1,26,54,15
1461663572769131,1,13,-47,-1,11,17,-33,27
1461663572769131,-21,-20,-7,-7,25,-20,-86,-49
1461663572782199,12,-10,-47,-62,-37,-38,35,-9
1461663572782199,-5,36,12,12,22,60,-43,29
1461663572790155,-33,22,-48,-38,-19,-47,-64,4
1461663572790155,-38,-8,33,49,-24,-52,-73,-4
1461663572805215,79,-8,-23,-56,-28,-5,33,8
1461663572805215,-37,-6,30,60,16,25,127,-13
1461663572813171,80,-10,-2,-10,19,37,-40,8
1461663572813171,9,-12,-7,-40,-1,-20,-64,-25
1461663572827200,-27,4,-19,49,3,-32,-17,-7
1461663572827200,-47,2,3,-16,-4,16,46,6
1461663572836186,14,0,24,34,-1,35,60,7
1461663572836186,41,-12,69,82,15,0,37,16
1461663572842190,61,-1,-73,-80,-44,7,4,22
1461663572842190,-47,-1,75,63,66,4,-46,-12
1461663572850195,-20,-3,-5,-52,3,25,114,9
1461663572850195,5,-19,-48,6,24,33,-49,32
1461663572865204,-26,8,70,69,0,-37,-92,-47
1461663572865204,-28,-1,-64,-54,-28,-27,-92,-41
1461663572873206,-27,2,21,1,-8,-56,-37,8
1461663572873206,6,-5,7,-29,-16,3,69,30
1461663572887216,-128,10,-14,-110,-35,26,54,2
1461663572887216,-18,4,0,29,5,-24,-53,-19
1461663572903227,-15,6,53,78,31,25,6,-29
1461663572903227,20,-19,-35,-65,-36,4,18,18
1461663572910233,-2,6,1,-25,-25,-13,-32,-9
1461663572910233,4,4,-54,-90,-35,-16,25,21
1461663572911231,-15,2,17,11,35,40,34,2
1461663572911231,9,-9,48,55,35,8,-3,-6
1461663572925240,57,-2,7,21,42,2,28,13
1461663572925240,-45,6,-29,-39,-12,45,119,36
1461663572933249,1,-8,-9,6,-20,-12,-121,-27
1461663572933249,-8,-3,-39,-54,-24,-57,-53,-17
1461663572947260,19,1,39,100,67,26,-30,13
1461663572947260,41,-7,2,-8,-35,-31,-25,14
1461663572956292,79,-11,13,-5,-14,16,119,71
1461663572956292,-12,-3,5,-11,5,14,-86,-42
1461663572962283,-110,-1,-34,14,-2,-48,-120,-95
1461663572962283,-14,1,35,11,8,15,36,31
1461663572970276,85,1,28,-7,-30,-10,-7,1
1461663572970276,-63,-9,-83,-128,-32,4,57,-27
1461663572985299,110,1,26,7,-9,-6,18,45
1461663572985299,-40,6,63,89,67,13,12,-4
1461663572993300,-4,1,30,-7,22,17,18,13
1461663572993300,25,-8,13,46,40,17,37,-5
1461663573007358,-78,3,-14,-77,-20,2,-6,-17
1461663573007358,-12,-3,13,67,53,9,6,-6
1461663573015304,81,-3,38,-17,-21,3,48,33
1461663573015304,4,0,47,39,-25,-2,-62,15
1461663573030373,100,0,-23,-25,18,18,66,37
1461663573030373,12,3,-14,-34,-44,-54,-111,-65
1461663573031318,-39,-5,-41,-22,-12,-38,-8,-39
1461663573031318,23,-6,-9,26,-7,4,10,-7
1461663573045337,24,5,31,30,-9,-20,-18,9
1461663573045337,38,6,-11,-108,-64,13,74,44
1461663573053344,-63,-1,-5,63,30,16,7,1
1461663573053344,-9,-19,-49,-83,-28,12,27,-21
1461663573067404,-85,11,-18,-44,4,7,-43,-16
1461663573067404,2,4,-45,-114,-18,-28,-25,4
1461663573075354,41,-6,38,10,16,-2,0,-14
1461663573075354,-8,-1,22,49,59,32,55,23
1461663573090387,-91,5,-37,-76,-58,-28,-53,-60
1461663573090387,17,-4,-21,76,34,9,50,19
1461663573091360,-3,-3,-29,-29,-16,12,-1,3
1461663573091360,42,-4,30,-96,-65,7,47,19
1461663573105398,-46,4,-7,103,41,-6,-74,-42
1461663573105398,37,-1,-19,-39,-32,-49,-58,-1
1461663573113390,-96,3,-3,31,10,-14,-49,-14
1461663573113390,31,-2,-53,-78,-80,-38,-35,-27
1461663573127399,74,3,5,45,59,34,84,29
1461663573127399,-26,-6,-35,-39,-20,34,108,27
1461663573135390,21,-8,27,85,81,42,-116,5
1461663573135390,2,-4,0,-66,6,-56,-82,-64
1461663573150458,-20,4,8,-12,-35,-18,-13,2
1461663573150458,4,0,69,74,20,1,-24,-12
1461663573151401,-23,-6,-9,-21,-19,7,60,12
1461663573151401,-22,-3,-8,1,14,33,48,20
1461663573165478,65,4,5,8,17,4,2,12
1461663573165478,-10,-3,54,51,29,9,14,33
1461663573173415,26,-5,20,-54,-17,39,103,67
1461663573173415,13,-12,-14,97,44,1,-85,-36
1461663573188439,-100,-3,-1,-30,-40,-58,-49,-12
1461663573188439,-20,4,-17,-53,-18,38,-11,17
1461663573195443,40,-7,-32,-34,-46,-78,-58,-54
1461663573195443,26,-12,10,27,16,-1,19,35
1461663573210512,-41,18,-7,31,25,24,28,22
1461663573210512,81,-1,13,-125,-111,-19,33,4
1461663573211448,-49,-1,13,82,87,76,3,12
1461663573211448,-37,-10,-7,-14,2,-37,-52,-49
1461663573225458,85,3,-10,34,38,16,-3,12
1461663573225458,-51,-1,25,64,60,-3,-40,-18
1461663573233461,55,-7,-10,-69,-31,-3,28,1
1461663573233461,3,6,-6,-65,-45,-4,25,-1
1461663573247471,15,-3,16,-28,-31,4,26,2
1461663573247471,20,0,-13,-18,-1,9,35,31
1461663573255476,-36,-9,-37,-23,-24,-19,-47,-19
1461663573255476,-28,0,0,51,18,0,-22,-1
1461663573271484,-54,1,14,3,-1,-12,-25,19
1461663573271484,-34,5,-25,-6,-11,-8,-25,-66
1461663573272485,11,-9,-12,5,-36,-66,-58,-13
1461663573272485,12,4,7,-28,-28,28,75,40
1461663573284534,39,-2,-15,-83,-3,23,64,18
1461663573284534,-37,5,10,46,50,13,-44,4
1461663573293539,-32,-3,11,60,44,-8,-21,-18
1461663573293539,50,0,23,71,14,6,4,-10
1461663573307550,8,11,-6,-3,-41,0,8,1
1461663573307550,-47,-5,-34,17,-2,-5,2,-10
1461663573315555,36,-8,-25,-46,14,17,31,1
1461663573315555,-7,2,-11,7,4,3,14,27
1461663573330534,-10,-5,31,87,61,16,16,0
1461663573330534,-5,-5,-2,-27,-33,-15,-26,-24
1461663573331535,20,-6,-6,-32,-27,-8,-7,8
1461663573331535,3,5,-12,-30,-13,5,26,23
1461663573345544,-90,5,-14,7,5,11,-2,-18
1461663573345544,10,3,8,-5,-17,-23,38,28
1461663573353559,-6,-5,-12,-28,-18,6,-26,-29
1461663573353559,-8,7,-3,8,-3,-47,-58,5
1461663573367555,47,-2,15,22,22,32,-5,2
1461663573367555,-17,-5,-1,5,5,20,-9,4
1461663573375575,-66,-13,2,-47,-37,-22,28,-18
1461663573375575,6,-8,13,26,32,18,24,11
1461663573390581,-34,-1,31,15,23,-7,-5,-1
1461663573390581,-16,-4,-21,-38,10,-3,-17,-15
1461663573391582,29,0,17,-6,-8,11,23,-4
1461663573391582,6,7,1,-56,-36,2,-5,-6
1461663573404591,0,-3,-13,30,16,-12,-4,2
1461663573404591,-8,-13,8,28,17,0,-11,-6
1461663573413598,6,-26,-3,-3,-6,-4,-11,0
1461663573413598,-4,-15,2,7,2,4,14,-1
1461663573427595,0,-8,-14,-14,-6,-1,2,-3
1461663573427595,6,6,-1,-4,-13,-13,-2,6
1461663573435642,-5,-114,-5,4,-4,-1,23,6
1461663573435642,0,66,-1,-5,10,25,19,16
1461663573450651,-62,76,-14,-9,-31,-47,-64,-21
1461663573450651,1,79,-13,-20,-19,-20,-71,-29
1461663573451613,-8,119,5,9,10,-1,-4,1
1461663573451613,-31,97,-6,-15,10,21,50,1
1461663573464678,11,14,-2,-2,0,0,37,29
1461663573464678,23,6,46,5,1,1,-12,0
1461663573473682,12,13,-10,-28,6,-1,4,-1
1461663573473682,-38,66,19,63,33,3,5,-12
1461663573487712,-19,19,-19,-30,-30,-3,-6,-4
1461663573487712,23,-66,-6,-14,-3,-15,-4,4
1461663573495718,30,14,5,24,18,10,-1,0
1461663573495718,-44,83,-3,-14,-21,-9,-15,-16
1461663573510766,-14,25,-3,-11,-15,-3,-2,-3
1461663573510766,40,-7,1,6,5,8,9,8
1461663573511725,24,-18,-15,-11,-12,-8,-3,-5
1461663573511725,-45,-75,-4,-7,0,-28,-27,-1
1461663573524733,11,-128,8,8,8,0,5,0
1461663573524733,34,-128,-4,-3,2,5,20,22
1461663573533736,-24,-116,-12,5,-2,-8,-33,-25
1461663573533736,-49,53,-11,-13,-9,18,-12,-19
1461663573547751,-12,52,-31,-53,-21,-6,-3,-3
1461663573547751,39,107,40,49,16,-3,-3,-3
1461663573555800,30,127,-20,-39,-15,-4,18,10
1461663573555800,-31,92,29,40,5,0,8,-2
1461663573570767,6,59,-4,2,31,24,17,10
1461663573570767,29,54,-5,14,13,0,-2,2
1461663573572769,12,24,6,24,11,3,-3,0
1461663573572769,-22,5,-1,-15,-12,-7,0,-3
1461663573584819,-6,28,9,5,-4,4,0,-2
1461663573584819,9,6,-31,-13,-15,-12,-10,-8
1461663573593767,2,30,8,6,-6,-8,-8,-5
1461663573593767,-17,37,-13,-21,-8,8,3,-1
1461663573607835,-12,-1,13,15,2,11,5,-2
1461663573607835,10,-21,8,-7,-4,-6,-8,-4
1461663573615841,8,-37,-23,1,2,-23,-2,0
1461663573615841,-15,-22,-5,-6,0,0,-2,0
1461663573630808,-2,-37,1,12,6,42,18,-1
1461663573630808,11,-45,-2,-8,-7,-4,-5,-6
1461663573631808,9,-15,9,6,6,14,9,3
1461663573631808,-11,-16,8,6,5,-23,1,5
1461663573644818,-7,-9,6,13,3,-8,-4,-3
1461663573644818,14,3,15,-8,-7,3,-1,-3
1461663573652866,-4,-45,-38,-16,-8,-4,-2,0
1461663573652866,-16,-21,-37,-6,1,-2,-2,0
1461663573667877,-2,12,0,4,-5,-3,3,0
1461663573667877,6,6,-7,-15,-10,-5,-5,-6
1461663573675836,10,25,28,7,6,3,-3,5
1461663573675836,-7,14,9,11,5,7,2,3
1461663573689863,-10,-3,-5,2,-1,-11,-2,-3
1461663573689863,4,-5,1,11,3,1,0,-3
1461663573697868,2,7,18,1,-4,3,-4,-1
1461663573697868,-7,-3,-2,-12,-6,3,2,4
1461663573704873,-3,3,7,5,1,-11,-4,2
1461663573704873,8,-5,-12,-9,-3,-1,1,0
1461663573712866,1,-4,-3,1,2,3,0,1
1461663573712866,-8,5,12,-2,-3,5,2,1
1461663573727861,-4,-14,-24,-9,-6,-10,-4,-3
1461663573727861,4,-16,-6,-1,-1,9,2,-2
1461663573735882,3,3,-13,1,4,24,4,1
1461663573735882,-8,7,20,3,2,1,3,3
1461663573750934,-7,-15,-11,-3,-2,-11,-6,-3
1461663573750934,9,2,1,-8,-5,-1,1,-1
1461663573751882,4,7,25,7,1,-6,-2,1
1461663573751882,-9,-3,-12,0,1,-2,0,-1
1461663573764946,2,5,-1,-2,-1,2,-2,0
1461663573764946,2,-11,-11,-2,-4,-5,-3,-3
1461663573772905,0,3,8,7,3,-4,-2,-3
1461663573772905,0,9,21,6,1,0,-2,3
1461663573787903,-9,-6,-8,-6,-4,-7,-3,-3
1461663573787903,7,-8,-11,-1,-2,2,0,0
1461663573796941,1,-4,8,-2,-4,-2,-1,-3
1461663573796941,-5,-2,5,0,1,-1,-2,-1
1461663573809920,1,-17,-15,-8,-6,-3,0,1
1461663573809920,3,5,0,0,3,1,-2,-2
1461663573826931,-4,-5,-6,1,-2,-2,0,-4
1461663573826931,-7,-2,-13,-8,-2,-4,-3,-1
1461663573827933,3,3,11,6,2,1,0,2
1461663573827933,1,-1,1,1,2,0,-2,-1
1461663573833937,-2,-17,-21,-2,-1,-5,-1,1
1461663573833937,-6,3,-3,-7,-4,-1,-2,-3
1461663573847975,-1,11,22,1,-1,2,0,0
1461663573847975,4,-4,-22,-5,-2,-7,-4,1
1461663573856953,8,26,33,3,1,0,0,1
1461663573856953,-7,-18,-11,-10,0,1,1,-2
1461663573869963,3,5,7,8,3,3,3,1
1461663573869963,7,-16,-6,-6,-2,0,-1,-1
1461663573878967,1,1,-3,3,3,-2,-2,-2
1461663573878967,-13,-18,-24,-9,-8,-5,0,-3
1461663573884987,3,5,10,-3,-5,0,-1,0
1461663573884987,3,-2,-7,-2,0,-1,-1,1
1461663573902023,0,5,13,0,-2,-2,0,-1
1461663573902023,-6,1,-8,-5,-2,2,-2,-3
1461663573908027,-3,-5,-2,2,3,1,0,0
1461663573908027,2,-1,-4,1,3,8,2,2
1461663573917085,-2,-6,-9,-7,-3,-3,-4,-3
1461663573917085,-8,-10,-7,1,1,-3,-3,-2
1461663573930124,0,5,13,0,-5,-6,-1,0
1461663573930124,-2,-17,-10,-10,-7,-6,-3,-2
1461663573939072,-5,3,-3,-15,-8,1,-3,-4
1461663573939072,-1,-8,-10,24,7,1,-1,1
1461663573954104,-2,5,14,3,5,-1,-2,0
1461663573954104,1,-4,-10,-2,0,-3,0,-1
1461663573956101,0,4,18,1,-6,-1,-2,-3
1461663573956101,0,12,9,-8,-2,-3,0,-1
1461663573968110,0,-9,-10,4,-1,2,-1,-1
1461663573968110,-8,-10,-16,6,4,2,2,-4
1461663573977114,0,-8,-17,-5,-2,-2,-1,-1
1461663573977114,-3,-9,-9,-6,-5,-12,-2,0
1461663573990138,1,13,21,2,-2,2,-4,-3
1461663573990138,-3,-4,-11,-5,0,-4,-1,-2
1461663573999144,2,-1,-3,3,2,1,-1,-1
1461663573999144,-4,6,8,-3,-3,-1,0,-1
1461663574014141,-1,-13,-18,-3,1,-7,-1,1
1461663574014141,0,0,9,-2,-4,3,-1,-1
1461663574016126,2,-2,-6,3,-1,-2,0,-2
1461663574016126,-1,3,1,-7,1,1,-1,0
1461663574027150,-2,-2,1,-2,-3,-3,1,-2
1461663574027150,4,8,17,11,4,2,0,0
1461663574037144,2,-12,-9,3,5,-1,1,1
1461663574037144,-1,8,16,9,2,0,-3,-2
1461663574050209,0,-2,-21,-4,0,1,2,1
1461663574050209,-1,-5,6,-8,-7,-7,-2,0
1461663574059156,1,2,-6,4,-1,-3,-3,-2
1461663574059156,-2,-1,-6,-8,-6,-3,-1,0
1461663574074179,-5,2,2,-5,-2,-1,-1,-1
1461663574074179,4,4,7,4,-1,-3,-1,0
1461663574075193,0,-1,0,-4,-4,-1,0,-3
1461663574075193,-4,-9,-13,-3,0,3,-3,-1
1461663574087190,0,-1,-1,0,4,0,1,1
1461663574087190,-1,8,8,-2,-4,-2,-2,-1
1461663574102247,-1,-1,-1,1,-1,-1,-2,-2
1461663574102247,-3,1,4,-8,-8,-4,-2,-3
1461663574110253,-4,-6,-5,3,3,4,2,0
1461663574110253,4,-1,0,9,8,1,0,0
1461663574119202,-2,-10,-9,2,1,0,-2,-1
1461663574119202,-2,0,1,6,2,0,0,1
1461663574134217,1,0,5,-6,-6,-3,0,1
1461663574134217,2,2,1,-9,-5,0,0,-1
1461663574135219,-2,0,-2,-1,-6,-3,-2,-3
1461663574135219,-2,4,16,-2,2,1,-2,-1
1461663574156233,-5,-5,-9,1,0,-1,-1,0
1461663574156233,3,6,13,1,-2,-2,-1,0
1461663574158235,2,-8,-14,-6,-3,-2,-2,-2
1461663574158235,-4,-4,-8,-3,-1,-2,1,0
1461663574170238,0,5,6,-6,-1,0,-2,-2
1461663574170238,0,-3,-6,-2,-2,-2,-2,0
1461663574186246,1,-12,-19,0,1,0,0,1
1461663574186246,-7,4,14,-3,-2,-1,-2,-2
1461663574193251,1,-1,6,2,-2,-2,0,1
1461663574193251,1,4,4,6,-2,-2,-1,-1
1461663574200317,-1,2,2,-6,-2,1,-2,-2
1461663574200317,1,-10,-24,-7,2,-1,-1,1
1461663574207322,-4,-3,-1,12,6,1,0,-1
1461663574207322,1,8,9,1,1,1,-1,0
1461663574216288,0,4,10,-3,-5,-1,-1,-2
1461663574216288,-1,-2,10,0,-3,-1,-1,-1
1461663574230309,0,-6,-14,-1,-1,1,-2,0
1461663574230309,3,-3,-6,-3,0,-1,0,-1
1461663574239293,0,5,6,2,0,-2,-1,-3
1461663574239293,-1,1,4,-1,-4,-2,-1,-1
1461663574253295,-1,-4,-4,-3,-5,-3,-1,0
1461663574253295,-2,-2,-10,0,0,-1,-1,-1
1461663574260314,3,4,16,-1,-1,-2,-2,-1
1461663574260314,-5,-5,-7,-2,-2,0,0,-2
1461663574267319,0,2,1,-1,-2,0,0,-1
1461663574267319,0,-2,-6,-3,-3,-2,-1,-2
1461663574276310,0,-3,-1,-3,0,-1,-3,-1
1461663574276310,-2,-6,-16,3,0,-1,-2,-1
1461663574290359,-1,6,17,-8,-7,-2,-1,-1
1461663574290359,0,-1,3,-3,1,0,0,-1
1461663574299340,1,1,5,10,5,2,1,0
1461663574299340,-1,-3,-9,1,3,0,-1,1
1461663574312335,-2,2,3,-1,0,-2,-2,-3
1461663574312335,2,5,8,-1,-5,-2,-2,-3
1461663574321341,-2,-11,-14,-8,-4,-4,-2,-2
1461663574321341,0,-4,3,3,2,1,0,-2
1461663574327345,0,2,-20,-5,-2,-4,0,0
1461663574327345,-1,10,11,-3,-2,-1,0,-1
1461663574337353,0,6,13,-1,-4,-2,0,-1
1461663574337353,-4,2,-1,-2,-4,0,0,-3
1461663574350374,1,-2,1,0,0,1,0,2
1461663574350374,-1,-7,-10,1,1,1,-2,-1
1461663574359381,0,-7,-11,-2,-4,-2,-1,-1
1461663574359381,-4,-3,2,-3,1,-1,-1,-1
1461663574372390,0,-2,2,4,4,-1,0,0
1461663574372390,2,-3,-6,1,2,-2,0,-1
1461663574381384,-2,1,-5,-7,-5,0,-2,-2
1461663574381384,-4,2,6,7,0,0,-2,-1
1461663574387403,-2,4,-10,-13,-3,0,0,0
1461663574387403,-1,-3,6,5,1,2,2,0
1461663574396395,1,-1,-2,-17,-8,-2,-2,-2
1461663574396395,-3,-4,-9,7,5,0,0,-1
1461663574410405,-1,-4,2,11,5,1,-1,-1
1461663574410405,1,-3,-3,2,-3,-2,-2,-1
1461663574419454,1,5,3,-1,2,-1,0,-1
1461663574419454,-5,-7,-5,0,0,0,0,-1
1461663574432432,0,0,-1,-8,-5,-3,-2,-1
1461663574432432,2,-4,0,-2,-1,0,0,0
1461663574441428,-4,-2,-8,-2,-2,-1,-3,-2
1461663574441428,-3,4,2,-9,-5,-4,-1,-2
1461663574447432,-3,-5,-1,7,2,0,-2,-3
1461663574447432,1,1,-3,-6,-1,0,0,-2
1461663574456440,-6,2,0,1,-1,-1,-2,-2
1461663574456440,-2,1,2,-1,-1,-2,-1,0
1461663574470453,1,-2,4,-1,-1,-2,0,-2
1461663574470453,2,-3,-8,-2,0,0,-1,0
1461663574480470,-5,-7,-5,-1,-1,-1,0,-2
1461663574480470,-2,3,4,6,4,2,1,2
1461663574492498,4,1,1,-1,1,1,1,1
1461663574492498,3,-2,-8,-17,-7,-3,-3,-2
1461663574501484,-3,-9,2,20,10,1,1,0
1461663574501484,-4,-2,0,-15,-9,-3,-3,-1
1461663574516539,1,3,1,7,4,1,2,0
1461663574516539,3,1,-4,-12,-5,-2,-1,-1
1461663574518540,-2,-4,-13,-6,-4,-2,-3,-1
1461663574518540,-4,0,4,4,-2,-2,0,-1
1461663574530502,0,7,13,10,0,-2,-1,0
1461663574530502,-1,-3,-5,1,-1,-1,1,-3
1461663574539544,-2,-3,-6,-10,-5,-2,-2,-3
1461663574539544,-2,0,1,3,1,0,1,1
1461663574552612,-2,-5,-9,-8,-3,-1,1,-1
1461663574552612,-1,-11,-12,5,1,0,1,1
1461663574561576,-2,1,-1,0,-2,-1,-2,-3
1461663574561576,-2,0,-8,-8,-3,0,-2,0
1461663574567729,0,2,2,-3,-2,-1,-1,-1
1461663574567729,1,0,7,2,2,-2,-2,0
1461663574576675,-3,-9,-14,-2,-1,0,-2,-2
1461663574576675,-1,2,3,-1,-1,-3,0,0
1461663574589685,1,-1,3,1,-1,-1,1,0
1461663574589685,1,4,5,4,2,0,1,-2
1461663574598755,-2,3,1,0,0,-1,-2,-2
1461663574598755,-5,-9,-7,-10,-6,-3,-3,1
1461663574621720,0,-3,-5,-4,-3,-1,-1,1
1461663574621720,-1,-3,7,27,13,3,1,-1
1461663574622720,0,10,12,0,2,1,1,-2
1461663574622720,-2,-3,-4,3,0,-1,-2,-2
1461663574627729,0,-2,-1,-6,-2,-1,-2,-1
1461663574627729,2,-1,-6,-13,-10,-4,-3,-4
1461663574636719,-1,0,1,1,-1,-2,-2,-2
1461663574636719,-3,0,-3,0,-1,0,-1,0
1461663574658739,-2,-6,-5,-9,-3,-2,-2,-1
1461663574658739,1,3,3,-3,0,0,-2,-1
1461663574660765,-1,-1,4,-1,-1,-3,-2,-3
1461663574660765,-2,-4,-3,-3,-1,-3,0,-2
1461663574672759,1,-2,0,4,2,-1,0,0
1461663574672759,2,3,-2,-5,-4,-2,0,0
1461663574681765,-2,0,1,1,-2,-1,-1,-1
1461663574681765,-4,-6,-7,2,2,1,0,0
1461663574687770,0,0,-4,-12,-2,-1,-1,-2
1461663574687770,0,-4,-2,-6,-6,-3,-3,-4
1461663574696761,-1,-2,11,21,7,1,-1,-1
1461663574696761,-2,8,5,-1,-1,-1,0,1
1461663574709829,0,-4,-7,1,0,1,0,2
1461663574709829,2,4,8,-5,-4,-2,1,-1
1461663574718806,-3,-8,-13,-15,-8,-3,-3,-1
1461663574718806,-1,1,10,14,7,4,2,0
1461663574732850,0,1,-4,-4,-2,-2,0,-1
1461663574732850,1,-6,5,-1,-3,-1,-2,1
1461663574741822,2,4,-5,-5,-4,-3,-3,-2
1461663574741822,-2,-2,3,4,-2,0,1,1
1461663574747826,2,2,-1,-1,-3,-1,-2,0
1461663574747826,0,-2,-4,-1,1,1,1,0
1461663574756817,-3,1,4,9,7,-1,-1,0
1461663574756817,5,2,4,0,-6,-3,-4,0
1461663574769816,0,-6,-7,-4,-2,-1,-1,-2
1461663574769816,1,2,0,6,1,0,-2,-1
1461663574778837,-3,-3,3,-7,0,0,0,-3
1461663574778837,-3,0,-2,-4,-1,-1,0,0
1461663574792829,-1,-2,-1,1,0,-1,-1,-1
1461663574792829,1,1,-2,0,-1,-1,0,0
1461663574801849,0,-5,-12,-9,-8,-2,-4,-2
1461663574801849,-7,0,-3,-3,-2,-1,0,-1
1461663574807878,0,1,9,6,2,-2,0,-2
1461663574807878,-1,5,3,4,4,0,2,0
1461663574823851,-1,-1,1,1,-4,-3,-1,-2
1461663574823851,-5,-7,-5,-7,-1,-2,-1,-1
1461663574829894,0,1,-4,-11,-3,-1,0,0
1461663574829894,-1,-2,-5,3,1,-2,-1,-1
1461663574838861,-3,-6,3,12,3,-1,0,-1
1461663574838861,1,8,-1,2,0,-2,-2,0
1461663574852930,-2,2,6,-1,-1,-1,-1,-3
1461663574852930,0,0,5,-5,-5,-1,0,-2
1461663574861891,-2,0,-5,-9,-6,-1,0,-3
1461663574861891,-2,-3,-11,1,2,-1,-2,0
1461663574867941,1,4,4,8,2,0,-1,1
1461663574867941,0,-4,-6,-4,-2,-2,-2,0
1461663574876888,-2,-6,-2,-8,-4,-2,-4,-2
1461663574876888,-2,-6,-8,-8,-4,-1,-3,-3
1461663574889898,1,-1,-6,3,0,-1,-1,-1
1461663574889898,2,-1,0,-1,-3,0,-1,-2
1461663574898905,-3,0,-3,-4,-1,0,0,1
1461663574898905,0,0,-6,-17,-3,-1,0,-2
1461663574912914,1,-5,-3,2,2,-1,0,0
1461663574912914,-3,-1,15,7,-1,-1,-1,-2
1461663574921920,-3,-6,-10,2,-1,0,-2,-4
1461663574921920,-2,1,0,-2,-1,-1,0,0
1461663574935946,0,-6,-7,-5,-2,0,1,-1
1461663574935946,-1,3,-1,-6,-4,-2,-2,-2
1461663574937931,-5,-5,-10,-16,-6,-5,-4,-2
1461663574937931,-2,3,18,15,-1,-1,-1,1
1461663574950001,-1,-2,-7,-2,3,1,-1,1
1461663574950001,-1,-1,0,9,1,-1,-1,1
1461663574958964,-1,1,1,-1,0,-1,-1,-1
1461663574958964,-2,-1,-3,-4,-2,0,1,-1
1461663574972956,-2,1,4,5,1,0,0,0
1461663574972956,0,-2,-9,-8,-2,-2,-2,-4
1461663574981963,-3,-1,-2,-11,-8,-4,-3,-1
1461663574981963,-2,-2,2,6,0,-1,0,0
1461663574995972,-1,-2,1,8,2,0,0,1
1461663574995972,0,1,3,0,1,2,1,1
1461663574997990,0,1,-4,-12,-6,-5,-2,-1
1461663574997990,-1,1,8,8,2,-1,-2,1
1461663575010015,2,5,3,-6,-3,2,0,2
1461663575010015,0,-6,2,10,5,0,-2,-3
1461663575019004,-1,3,4,8,1,-2,0,-1
1461663575019004,-2,-16,-24,-17,-4,-2,-2,0
1461663575033018,0,5,10,11,1,-4,-1,-1
1461663575033018,-2,-7,-10,-3,-3,-2,-1,-2
1461663575042004,-3,3,9,0,-1,-1,-1,-2
1461663575042004,0,2,-1,1,-2,-2,-2,-2
1461663575056017,0,-2,-2,0,4,1,-1,-1
1461663575056017,1,6,1,-6,-3,-2,-2,-1
1461663575058016,-2,-5,-6,5,0,0,0,-3
1461663575058016,-2,3,4,1,0,0,0,0
1461663575070026,-2,2,-3,-5,-2,-1,0,-2
1461663575070026,0,-4,2,-1,-1,1,0,-1
1461663575080048,-2,1,4,0,0,0,0,-2
1461663575080048,-1,0,2,-1,0,-2,-2,-1
1461663575093104,0,0,-1,-6,-3,-2,-2,-1
1461663575093104,3,0,-12,-8,-2,-3,-2,-2
1461663575102110,-3,-7,0,6,1,-3,-4,1
1461663575102110,0,3,7,-6,0,3,1,1
1461663575124062,1,-4,0,16,6,1,0,-2
1461663575124062,-2,-3,1,-2,-1,1,0,-2
1461663575126064,0,-4,-10,-3,-8,-3,-1,-3
1461663575126064,0,-4,-14,2,7,2,2,2
1461663575130083,2,2,5,-7,-5,-3,-1,0
1461663575130083,-1,-1,3,-2,-2,-3,0,-1
1461663575139073,-2,-1,-5,0,2,-2,-2,0
1461663575139073,-2,5,9,-4,-4,-3,-2,-2
1461663575153117,1,-1,1,-1,-1,1,0,-1
1461663575153117,-2,0,-2,-3,-2,0,-2,-2
1461663575162118,0,0,2,-2,-1,3,-1,0
1461663575162118,1,-6,-1,-5,-3,-3,-4,1
1461663575176099,-1,-6,-8,-5,-2,-2,-1,-1
1461663575176099,1,1,-10,-9,-4,-2,-2,0
1461663575178100,-3,-3,-3,-6,0,0,0,-2
1461663575178100,-3,2,13,16,4,2,0,-2
1461663575190109,1,-2,3,-5,0,-2,1,0
1461663575190109,-3,1,0,4,-1,-3,-2,-3
1461663575199132,0,-3,-7,-13,-5,0,-2,-1
1461663575199132,0,-1,-5,-2,-1,-1,0,0
1461663575212184,-2,-2,6,6,3,-1,-1,-2
1461663575212184,1,-5,-11,-7,-2,-1,0,1
1461663575221131,-2,-3,-6,-6,-2,-4,-3,-2
1461663575221131,-2,5,14,10,3,-2,1,-2
1461663575236169,1,3,4,1,-3,-3,-1,1
1461663575236169,-2,-3,-5,-6,-2,-2,-1,-2
1461663575238143,-1,4,7,-2,0,-1,-1,-2
1461663575238143,-1,-3,-3,-2,-4,-3,-1,0
1461663575250209,-1,-18,-25,-4,-2,0,-1,-2
1461663575250209,1,0,4,0,-2,-1,0,-1
1461663575259158,-7,-2,-3,2,-2,-2,-2,-4
1461663575259158,1,10,-1,-4,-3,-1,0,4
1461663575272179,-1,-1,1,-4,-2,-1,0,-2
1461663575272179,2,-6,-2,0,-1,-1,-2,0
