timestamp,emg1,emg2,emg3,emg4,emg5,emg6,emg7,emg8
1461663695771867,-3,-11,-17,-3,0,-1,-2,-1
1461663695771867,5,12,17,1,-1,-2,1,4
1461663695778873,0,-1,9,4,4,1,0,3
1461663695778873,-6,-6,-5,-6,-4,-2,-3,-8
1461663695793885,-2,1,2,-3,-2,-2,-1,-3
1461663695793885,1,0,7,1,2,-1,-1,3
1461663695800889,2,1,-1,0,2,-1,0,4
1461663695800889,-1,0,1,-1,-3,0,-1,-5
1461663695816929,-3,-2,13,-2,-3,-2,0,-2
1461663695816929,0,-3,-13,-2,0,-1,0,3
1461663695818901,3,8,9,3,2,1,2,4
1461663695818901,0,-3,3,0,-2,-3,-2,-5
1461663695831909,-2,-1,-11,-2,-3,-2,-2,-4
1461663695831909,-2,-5,-3,-5,-2,-2,-3,-1
1461663695838914,4,4,-2,2,2,1,1,2
1461663695838914,-4,-3,6,-4,-4,-2,-1,-5
1461663695853926,-4,-5,2,1,-3,-1,-3,-2
1461663695853926,0,2,5,1,-2,-2,-1,2
1461663695861242,3,8,11,2,0,1,0,1
1461663695861242,0,0,-13,-3,-2,-2,-1,-2
1461663695877765,-1,-1,13,1,-1,-1,0,-1
1461663695877765,-2,-5,-14,0,3,1,1,2
1461663695879253,1,3,11,-1,-1,-3,0,0
1461663695879253,-2,-3,-7,1,0,-2,-3,-3
1461663695891776,-1,2,13,0,-1,-3,-2,-1
1461663695891776,0,0,1,-2,-2,-1,0,3
1461663695898774,-2,-5,-7,-2,0,-1,0,-2
1461663695898774,-4,-3,-4,-3,-1,-2,0,-4
1461663695914295,-2,-2,-7,-3,-3,-2,-1,-3
1461663695914295,0,-6,-15,-1,1,0,2,-1
1461663695921341,-4,-1,0,-1,0,0,0,-2
1461663695921341,-2,-1,1,-2,-4,-3,-2,-4
1461663695937829,-1,-3,-15,-4,-1,-1,-2,0
1461663695937829,0,0,10,-2,0,-1,0,0
1461663695939296,0,-2,4,0,-1,-2,0,0
1461663695939296,-1,0,2,3,1,-1,-3,-2
1461663695960344,-1,-3,-17,-4,-1,-1,-1,1
1461663695960344,-1,2,15,1,-2,-2,-2,0
1461663695961515,0,-4,-7,-1,0,1,1,1
1461663695961515,-1,-5,-9,-6,-3,-1,0,-3
1461663695982545,0,-1,7,0,-1,-1,-1,0
1461663695982545,-1,-4,-21,-4,0,0,-3,1
1461663695983545,2,2,3,-1,-2,-1,-1,-1
1461663695983545,-3,0,4,-3,-2,-2,0,-2
1461663695997542,1,1,-6,1,0,-1,0,0
1461663695997542,0,0,10,-2,-2,-2,-1,-1
1461663695998542,1,-3,-5,-3,-3,0,-1,1
1461663695998542,-3,2,7,-1,-3,-2,0,-2
1461663696010609,0,4,4,0,1,-2,-1,2
1461663696010609,-1,-10,-32,-5,-3,-2,1,0
1461663696019615,-1,3,9,-1,-1,-1,0,-2
1461663696019615,-3,1,1,1,0,0,-1,-1
1461663696034596,-2,-4,2,4,-2,1,-2,-2
1461663696034596,2,3,3,3,2,-1,0,2
1461663696041579,-2,-3,-10,-4,-1,-1,0,0
1461663696041579,-4,-4,6,-1,-3,0,-3,-4
1461663696057598,-1,1,-2,-1,-1,-1,-2,-1
1461663696057598,0,-3,-4,-2,-2,-1,-2,2
1461663696058582,-2,0,9,0,0,2,2,1
1461663696058582,-2,2,-3,2,1,0,0,-2
1461663696070652,-2,-6,-12,-3,-1,-3,-3,-4
1461663696070652,0,-1,4,-1,-3,-2,-3,-2
1461663696080600,-2,-2,3,-3,-1,-2,-2,0
1461663696080600,-3,-2,-1,0,0,0,-2,-1
1461663696094625,-1,0,-4,-4,-2,0,-1,-2
1461663696094625,-2,-4,-6,1,0,-2,-2,-1
1461663696100612,0,4,0,0,0,-2,-2,-1
1461663696100612,-1,1,3,-1,-2,-1,0,-1
1461663696124636,-2,-7,-15,-3,0,0,-1,-2
1461663696124636,1,-1,-6,3,2,-1,-2,0
1461663696126633,3,6,2,2,0,1,0,-1
1461663696126633,-8,-9,-8,-3,-4,-1,-1,-4
1461663696130649,1,-1,7,-2,0,1,0,-1
1461663696130649,1,2,-8,-2,-1,-2,-1,2
1461663696139644,1,0,6,1,0,-2,-1,-1
1461663696139644,-1,3,-4,0,2,-1,-1,-2
1461663696154680,-1,-1,6,-4,-5,-2,-1,0
1461663696154680,2,0,-3,-2,-1,-1,0,5
1461663696160660,-1,1,1,4,3,1,0,0
1461663696160660,-6,-2,-4,-1,-2,-2,-4,-9
1461663696177685,3,-2,6,3,3,0,-2,0
1461663696177685,6,0,-9,-2,-1,1,2,6
1461663696178685,-2,-4,-11,-3,-1,0,0,0
1461663696178685,-4,1,3,-1,-2,-3,0,-5
1461663696190693,0,1,8,1,-1,-2,0,-3
1461663696190693,3,1,6,-2,-2,0,-3,3
1461663696199701,-1,2,9,4,2,-1,-2,1
1461663696199701,-7,-12,-24,-5,-3,0,-1,-6
1461663696213731,0,1,-1,-2,-1,-3,-3,0
1461663696213731,3,-1,-1,-2,-3,0,-1,2
1461663696220736,-3,-3,4,3,1,-2,0,-1
1461663696220736,0,3,4,0,-1,0,-2,-5
1461663696236747,-2,-1,2,-4,-3,-2,-1,0
1461663696236747,0,0,3,-2,-1,0,1,2
1461663696243724,-1,2,-1,6,2,0,-2,-2
1461663696243724,-5,-10,-17,-4,1,-3,-2,-4
1461663696250757,0,2,5,-4,-5,-2,1,1
1461663696250757,0,4,15,5,2,-1,0,1
1461663696259725,-6,-12,-17,-10,-5,-2,1,-2
1461663696259725,-1,1,1,0,-5,-1,-1,-2
1461663696273748,1,-3,-9,1,1,1,-1,2
1461663696273748,-1,-4,0,0,0,-2,-1,-1
1461663696288805,0,1,0,0,0,0,-1,-2
1461663696288805,0,1,1,-3,-1,-2,-1,-4
1461663696296751,1,-1,-6,-2,-1,-2,0,1
1461663696296751,0,-2,-8,1,0,0,-1,1
1461663696303755,-3,0,-7,-5,-4,-1,-2,-3
1461663696303755,0,0,6,1,0,-2,-2,-2
1461663696310762,1,-1,-3,1,-1,-2,-1,-1
1461663696310762,-1,-8,-20,-2,0,-1,2,1
1461663696319768,-3,2,22,0,-4,-2,-3,-3
1461663696319768,0,3,-17,-4,-1,-1,-2,-2
1461663696334777,-2,-5,5,-1,-1,-2,-2,1
1461663696334777,0,2,2,-1,-1,-1,0,0
1461663696340782,-1,-1,-5,2,2,-1,-1,-2
1461663696340782,0,1,1,0,-2,-1,-1,-1
1461663696356797,-2,-2,0,3,1,0,0,0
1461663696356797,-1,1,1,1,3,2,0,-2
1461663696364814,-3,-5,-8,0,0,-1,0,-2
1461663696364814,-1,-1,2,-3,-1,-2,0,-1
1461663696370862,3,8,14,5,2,2,0,-1
1461663696370862,-1,-5,10,-4,-4,-1,-1,-2
1461663696379810,-4,-2,-7,-3,-2,-1,0,-3
1461663696379810,-1,-7,-6,1,0,-2,-1,0
1461663696393826,2,-1,-7,-1,-4,0,0,0
1461663696393826,-1,4,10,-1,-1,-1,-1,0
1461663696400853,0,-1,-5,-4,-4,-1,0,-3
1461663696400853,-3,-6,-11,-3,-1,-2,-2,0
1461663696416853,0,-1,6,-1,-2,-2,-2,1
1461663696416853,-1,0,-1,3,2,-1,-2,-2
1461663696423845,-1,-4,-5,-5,-1,-2,-2,-4
1461663696423845,-3,-3,4,1,-3,0,-2,0
1461663696439854,3,1,0,2,0,1,0,1
1461663696439854,-3,0,13,0,-2,-2,0,-2
1461663696441853,-5,-9,-21,-7,-4,-2,-4,-3
1461663696441853,1,2,2,1,-2,-1,-1,-1
1461663696453900,0,-8,-10,-3,1,0,-1,1
1461663696453900,0,0,-8,-1,-2,1,2,0
1461663696460905,0,5,21,0,-1,-2,0,-2
1461663696460905,0,-1,5,3,2,1,0,-2
1461663696476877,-1,-1,-6,-2,0,-2,-3,1
1461663696476877,-1,-2,-7,-3,0,-1,-1,-2
1461663696483882,-1,-5,-8,-5,-3,-2,-1,-2
1461663696483882,2,2,-4,1,-1,-3,0,2
1461663696506900,-2,-1,0,-3,-2,-3,1,0
1461663696506900,-3,0,5,1,-2,0,0,-4
1461663696508901,-4,-1,2,1,-3,-1,-3,-4
1461663696508901,-1,-5,-6,0,4,0,-1,-1
1461663696513915,-3,0,0,1,0,1,0,-1
1461663696513915,0,2,2,-1,-1,-2,0,-2
1461663696520921,-2,1,7,1,-2,-1,-2,-1
1461663696520921,0,0,-5,-1,-2,0,-1,2
1461663696536932,0,-6,3,-5,-3,1,-2,0
1461663696536932,-2,-2,-2,-2,-1,-2,-2,0
1461663696543938,-4,-5,2,-1,-1,-2,-3,-3
1461663696543938,-1,-2,-9,-4,-3,-2,-1,1
1461663696559975,-1,-1,1,-2,-1,-2,0,-1
1461663696559975,-1,1,0,1,-1,0,0,-1
1461663696561937,0,0,-7,-4,-2,-1,-2,-2
1461663696561937,-1,-1,7,-2,-3,-2,-2,0
1461663696573960,-1,-2,-6,2,0,1,2,-1
1461663696573960,-3,-3,-5,-1,0,-1,-1,-1
1461663696588977,0,2,1,-3,-1,0,1,0
1461663696588977,3,3,6,0,-2,-1,-2,0
1461663696596975,-4,-5,-11,-3,0,-1,-1,-1
1461663696596975,-1,-2,-4,-1,-1,-1,-2,-2
1461663696604004,-1,-2,-5,-1,-1,-2,-1,-2
1461663696604004,-1,2,14,-4,-3,-3,-1,-1
1461663696620037,2,2,2,2,-1,-1,-1,0
1461663696620037,2,1,-4,4,3,0,1,-1
1461663696622011,-6,-7,-5,0,-1,-1,-1,-3
1461663696622011,-4,-4,5,-3,-3,-1,-2,0
1461663696634047,0,0,1,2,2,0,0,2
1461663696634047,-2,0,-3,-2,0,1,-1,-2
1461663696640993,1,1,-4,1,0,-1,0,-3
1461663696640993,-1,-1,-1,3,2,-1,0,-1
1461663696657007,-3,0,4,-3,-3,-1,-1,0
1461663696657007,-1,-1,2,-1,-1,0,-1,-1
1461663696664026,1,-1,0,-1,-4,-2,0,-1
1461663696664026,0,-2,-1,-1,-1,-1,-1,0
1461663696680033,-1,-3,-18,-5,-1,-2,1,0
1461663696680033,-2,-2,6,-1,-1,-2,-2,-2
1461663696682040,-2,-1,-8,-2,-1,1,-1,-1
1461663696682040,1,0,11,-2,-2,0,-1,1
1461663696694043,-3,-1,1,-1,-3,-2,-1,-1
1461663696694043,-1,2,0,-2,-1,-1,-1,-2
1461663696701048,0,-5,-8,-2,-3,-1,-2,-2
1461663696701048,1,3,9,1,-3,-2,-1,1
1461663696717076,-3,-6,-13,-4,-1,0,-1,-1
1461663696717076,-1,0,-5,-2,-2,-1,-2,-2
1461663696723052,-1,-3,1,-2,-2,-2,-2,-2
1461663696723052,0,-2,-7,-2,-1,-1,-2,1
1461663696740065,-2,0,-4,4,2,-2,-1,-1
1461663696740065,-4,1,17,1,1,-2,-1,-2
1461663696741064,-1,-7,-17,-4,-3,1,-1,-1
1461663696741064,2,0,2,-4,-2,-1,-1,0
1461663696763081,-2,0,0,0,-1,-2,-1,0
1461663696763081,-2,-3,-12,-3,-4,-2,-3,-1
1461663696764082,0,4,15,5,4,0,0,-1
1461663696764082,0,0,1,2,0,-1,0,2
1461663696776093,-4,-4,-2,2,1,-2,-2,-1
1461663696776093,-1,-4,-4,-3,-4,-1,1,-2
1461663696784096,-1,-6,-5,-1,0,0,-2,-1
1461663696784096,-3,-6,-6,-2,-3,-2,-1,0
1461663696799128,2,8,11,0,1,-1,-1,-1
1461663696799128,-3,-2,0,3,3,1,0,-4
1461663696800107,-1,1,14,-3,-5,-3,-1,-3
1461663696800107,3,3,-5,-2,-1,-1,-2,2
1461663696815116,-2,-6,-1,-3,-3,-1,-2,-1
1461663696815116,-2,-2,-4,0,-1,0,0,-1
1461663696821120,1,2,4,-1,-1,-2,-1,0
1461663696821120,-1,-3,5,-2,-2,-1,-3,0
1461663696837132,0,2,0,-1,-3,0,0,0
1461663696837132,-3,-2,-6,-4,-3,-2,-1,-3
1461663696843138,-3,-2,-9,-1,0,-1,-2,-3
1461663696843138,1,0,-1,0,0,1,1,1
1461663696866155,0,1,-1,-1,0,2,1,1
1461663696866155,-2,4,11,1,-1,-1,-1,0
1461663696867153,-2,-3,1,-1,-3,-2,-1,-1
1461663696867153,0,-4,-9,-2,-1,-2,0,-2
1461663696875160,0,-2,0,0,-1,-1,0,1
1461663696875160,2,0,-9,-1,-1,-1,-1,0
1461663696881163,0,6,20,-5,-4,-2,-2,-2
1461663696881163,-2,-5,-12,1,1,-2,-2,2
1461663696897174,1,-1,-3,-1,2,-1,1,-1
1461663696897174,0,-5,-18,-2,0,-1,-2,-4
1461663696903219,-1,3,10,5,-1,0,-3,-2
1461663696903219,-1,1,5,1,2,-1,-1,1
1461663696927202,-1,1,-1,2,-1,1,-1,0
1461663696927202,-2,-3,-3,-5,2,-2,-2,-1
1461663696927202,-1,-7,-16,-6,-3,-1,-1,-3
1461663696927202,1,-3,-5,-1,-2,0,-2,-1
1461663696936244,-2,-1,5,-1,-1,0,0,-1
1461663696936244,-2,-1,-2,-3,-1,-1,1,-2
1461663696941211,0,-1,-2,-2,-5,-3,-1,-2
1461663696941211,0,5,13,6,3,-1,0,0
1461663696958221,-6,-13,-31,-4,-1,-1,0,-2
1461663696958221,0,3,10,3,0,0,-1,-1
1461663696963280,1,0,4,-2,-2,-1,0,-1
1461663696963280,-3,-9,-13,-9,-6,-4,-2,0
1461663696979245,1,3,7,1,2,-1,-2,-1
1461663696979245,-5,1,0,-1,-5,-2,-3,-3
1461663696980245,0,4,10,2,2,-1,-1,-1
1461663696980245,0,-2,-8,6,2,0,-1,2
1461663696995251,0,3,11,-2,-3,0,0,-1
1461663696995251,3,3,0,0,-1,0,1,-1
1461663697001273,-4,-5,-6,-7,-5,-3,-3,-1
1461663697001273,1,-1,-8,-4,0,0,0,1
1461663697017260,-1,1,9,3,2,0,-3,-1
1461663697017260,2,0,3,0,-1,1,0,-1
1461663697023267,-7,-3,-7,-8,-5,-2,0,-4
1461663697023267,-1,-1,-3,-1,0,2,-1,-1
1461663697039336,0,0,2,-3,-6,-5,-3,-2
1461663697039336,0,-2,3,2,5,1,0,0
1461663697040278,-1,-1,-11,-5,-3,0,-1,0
1461663697040278,-4,-8,-20,-11,-6,-3,-3,0
1461663697061350,-3,5,36,8,-1,-1,0,-2
1461663697061350,-1,-6,-17,-4,-2,-2,-1,-3
1461663697062292,-1,-2,2,16,5,1,0,-2
1461663697062292,-2,5,15,-10,-5,-1,0,0
1461663697077302,3,-2,-1,1,0,-2,0,0
1461663697077302,1,7,4,-5,-3,-1,0,0
1461663697083365,-4,-6,-13,-1,0,-4,-2,-5
1461663697083365,0,-2,-10,-4,-2,-1,-3,-1
1461663697099330,2,2,12,-1,0,-1,1,3
1461663697099330,-2,-5,-1,-1,0,-2,0,1
1461663697100350,-4,-5,-8,-5,-2,-3,-3,-5
1461663697100350,-1,2,3,-6,-5,-3,-2,-5
1461663697121392,0,-5,-11,4,1,1,1,5
1461663697121392,1,2,4,3,9,3,1,4
1461663697122335,-2,6,10,21,11,3,-1,-1
1461663697122335,3,2,8,-4,1,-1,-1,-2
1461663697137373,-3,-13,-21,-10,-3,0,-4,-2
1461663697137373,1,0,12,-4,-14,-3,-1,-1
1461663697143350,-7,7,-7,-5,-8,-2,-2,-5
1461663697143350,0,7,41,26,13,6,3,0
1461663697159430,5,2,-14,-4,7,1,-2,2
1461663697159430,0,1,-1,1,1,-3,-5,-1
1461663697160365,-4,-9,2,-22,-13,-5,-2,-8
1461663697160365,-3,-3,-17,1,-2,1,7,-1
1461663697181393,4,6,6,4,3,2,10,4
1461663697181393,-4,-5,-2,-3,-3,-4,6,3
1461663697182376,2,2,6,-1,-1,-4,-14,-3
1461663697182376,-1,0,-4,-9,-7,-6,-16,-4
1461663697197389,-4,-6,-8,3,0,-3,-10,0
1461663697197389,-4,-5,-5,-1,0,3,-1,-3
1461663697203421,1,-4,-13,-3,5,3,14,-5
1461663697203421,-5,-5,11,7,2,2,-2,-1
1461663697218431,-1,0,-4,-31,-15,-5,3,5
1461663697218431,-5,0,0,24,-8,-8,-8,0
1461663697226422,5,3,-3,3,21,10,10,1
1461663697226422,8,-7,-4,23,13,6,4,1
1461663697241418,-5,5,0,10,10,-2,-10,-2
1461663697241418,-3,10,18,-1,-11,-4,-5,-2
1461663697242420,-5,-10,-17,-4,-9,-1,-4,-10
1461663697242420,-3,-18,-11,-9,-1,-1,4,-4
1461663697257431,5,36,16,0,-8,1,-3,5
1461663697257431,-13,-63,-39,-27,-8,2,10,-2
1461663697263473,0,-2,1,3,0,4,15,-4
1461663697263473,7,3,-10,-8,2,5,8,2
1461663697278457,-11,7,5,-6,-11,-3,-17,-3
1461663697278457,7,5,-3,-32,-6,-8,-20,6
1461663697286466,2,0,-1,35,16,-16,-29,-8
1461663697286466,-10,-16,-1,10,-13,-13,-14,-7
1461663697301520,1,-2,0,-8,-2,-1,-4,-2
1461663697301520,-1,13,4,6,8,3,11,-3
1461663697302461,-11,-43,-7,-67,-41,-11,-4,-6
1461663697302461,13,25,-14,45,31,18,42,14
1461663697317487,0,-2,27,-50,-19,-5,-3,11
1461663697317487,5,4,-21,43,29,18,11,-2
1461663697323479,-8,29,-3,-50,-28,2,27,-5
1461663697323479,11,-28,22,68,23,0,-39,-4
1461663697338546,7,-15,-19,6,14,-17,-28,-8
1461663697338546,-16,-26,17,35,-5,-4,-8,-3
1461663697346495,13,-1,6,1,10,17,54,15
1461663697346495,-30,23,6,-20,-11,11,-6,-7
1461663697361506,18,-1,-2,19,15,2,-8,-2
1461663697361506,7,13,-10,-7,3,0,6,8
1461663697362506,26,7,-4,-3,-14,1,56,20
1461663697362506,12,7,-9,-57,-28,-13,-51,25
1461663697377514,-13,-3,-18,-41,-41,-43,-53,-15
1461663697377514,-17,-25,19,13,5,-27,-73,-29
1461663697383533,-6,35,23,15,-4,-19,-43,-28
1461663697383533,0,-59,-68,-50,22,8,12,-6
1461663697398530,-42,0,18,16,-35,14,21,-12
1461663697398530,20,2,-18,-7,33,32,52,11
1461663697406536,-4,30,-11,-84,-20,12,57,7
1461663697406536,16,93,51,124,60,32,63,19
1461663697421545,0,-34,-13,-14,20,33,-7,1
1461663697421545,0,37,41,-27,-25,3,35,7
1461663697422546,6,-7,-26,45,10,-32,-89,-22
1461663697422546,-61,-88,-49,-101,-81,-56,-65,-16
1461663697437571,-8,-102,3,42,39,11,18,-7
1461663697437571,31,111,15,12,-1,3,-24,-2
1461663697443620,26,65,-8,4,-7,-19,58,35
1461663697443620,4,48,1,-58,-46,-15,-54,-11
1461663697458631,-71,29,-21,-29,-20,-30,-24,-16
1461663697458631,-4,-38,10,-39,-7,-8,-14,-30
1461663697466594,78,77,22,104,55,30,-2,5
1461663697466594,11,-67,-14,-76,-39,-2,63,34
1461663697481600,20,39,62,96,49,29,59,23
1461663697481600,-21,-49,4,-82,4,-13,-37,-11
1461663697482601,-17,-128,-34,-19,-27,14,-26,-20
1461663697482601,-33,-78,29,103,84,31,47,-12
1461663697497611,26,-29,-44,-17,10,24,64,40
1461663697497611,-34,-41,-14,-12,-22,-34,-79,-31
1461663697503615,-7,-44,16,-2,-16,-29,-91,-28
1461663697503615,-7,-23,9,-64,-45,-9,-17,-36
1461663697518626,45,-88,15,-25,21,28,64,63
1461663697518626,66,76,16,51,9,-7,43,58
1461663697525619,-32,83,-53,-39,-20,-3,-20,-13
1461663697525619,-18,99,22,-38,-42,-11,34,-9
1461663697541644,-18,127,-25,14,12,-15,-29,-15
1461663697541644,9,53,14,-19,-17,18,42,-4
1461663697542643,-34,58,25,81,43,-9,-82,-32
1461663697542643,-4,114,-22,-11,-4,-17,-79,-37
1461663697557644,-60,-33,29,-42,-57,-29,-12,-11
1461663697557644,39,49,-17,60,55,24,67,45
1461663697563687,94,29,35,7,12,20,65,22
1461663697563687,18,-43,-10,37,37,58,93,28
1461663697578668,-79,5,-54,-25,0,-18,-84,-56
1461663697578668,-88,31,30,-22,-42,-67,-93,-28
1461663697585700,63,-73,-19,-50,-24,1,72,17
1461663697585700,5,-31,25,24,-3,9,-48,-1
1461663697601731,-55,45,28,56,31,1,2,-11
1461663697601731,6,5,-16,40,20,-3,-11,9
1461663697602674,31,104,-6,-19,3,1,17,-4
1461663697602674,29,118,-20,-19,-35,-19,37,17
1461663697617684,58,53,25,-15,-34,-18,-87,-1
1461663697617684,-128,-47,-80,-91,-30,-16,-31,-25
1461663697623690,32,-124,77,32,32,38,25,8
1461663697623690,0,-54,-16,-6,27,-9,2,-5
1461663697638758,-66,14,-17,30,8,5,24,-9
1461663697638758,51,-18,-33,-43,-29,15,48,0
1461663697645716,69,-118,62,27,20,9,-20,10
1461663697645716,6,-16,-21,-52,-13,9,35,4
1461663697661773,6,36,21,-21,9,22,29,45
1461663697661773,-25,4,10,-37,-26,-9,47,25
1461663697662726,-74,-95,-85,-11,-20,-5,-55,-37
1461663697662726,66,7,17,84,41,-8,-19,1
1461663697677733,-48,29,4,-51,-33,-26,36,-9
1461663697677733,67,-2,2,14,33,63,82,20
1461663697683731,-66,-28,-10,-23,-34,-49,-50,-23
1461663697683731,-56,1,35,-53,12,21,0,8
1461663697698741,67,27,6,41,-9,-18,-48,4
1461663697698741,-128,26,-38,-37,2,-28,-44,-8
1461663697705805,66,-53,-69,-37,-13,0,-1,13
1461663697705805,-49,26,17,-71,-81,-1,84,24
1461663697721816,-67,6,-30,-23,51,47,-9,-47
1461663697721816,35,7,70,-19,-1,-10,-68,-37
1461663697722758,33,-13,-24,-57,-12,7,54,26
1461663697722758,19,28,21,42,73,18,-13,28
1461663697737800,-32,8,-39,52,-14,-32,-43,-31
1461663697737800,12,-28,22,34,-8,-9,-5,-34
1461663697743773,20,-45,-15,-68,16,30,52,29
1461663697743773,-53,6,3,44,-9,-15,-37,-20
1461663697759801,-15,29,30,54,23,26,110,84
1461663697759801,75,-1,-9,30,28,16,44,7
1461663697765847,-98,-7,-11,-2,-40,-47,-100,-40
1461663697765847,-58,3,11,-9,-25,-54,-74,-36
1461663697781800,-2,5,-35,-95,-10,21,0,-32
1461663697781800,-19,-12,-5,29,-18,-45,-29,3
1461663697782800,71,-16,48,-32,-9,2,14,13
1461663697782800,4,9,-15,-7,19,10,5,22
1461663697797823,-55,4,-34,-62,-78,-23,-26,-54
1461663697797823,109,-2,22,-2,38,61,57,25
1461663697803874,31,-25,-18,-9,-36,-28,-30,1
1461663697803874,-60,6,16,123,79,14,-13,-10
1461663697819843,-4,15,-68,-96,-48,-8,45,4
1461663697819843,-38,-9,29,68,5,8,-15,-7
1461663697825840,30,-12,13,45,38,9,30,12
1461663697825840,-38,10,9,-53,-33,40,29,-17
1461663697841872,52,8,29,-1,15,-45,-36,48
1461663697841872,20,-24,11,16,0,0,-105,-39
1461663697842845,11,-17,-17,-9,-15,-25,-42,18
1461663697842845,6,1,-22,-21,-39,-35,-12,28
1461663697865862,6,9,36,14,44,30,94,16
1461663697865862,44,-1,-18,-6,14,0,-30,-22
1461663697866863,-29,-15,46,53,12,11,-9,-8
1461663697866863,8,6,-30,-68,1,7,14,-12
1461663697879871,-71,5,10,31,-45,-2,34,-1
1461663697879871,-40,-9,-35,2,-11,-24,-56,-38
1461663697885874,7,2,27,-20,30,14,2,6
1461663697885874,-20,13,-1,7,-15,-25,-45,-20
1461663697901942,-19,-4,-2,-117,-42,11,-13,-33
1461663697901942,45,-12,4,59,55,32,87,49
1461663697902901,33,-2,22,-35,10,8,54,34
1461663697902901,-24,-14,-31,72,47,32,84,36
1461663697917928,74,6,56,1,0,1,-60,15
1461663697917928,-11,2,-15,18,-25,-24,-40,-24
1461663697923914,35,1,-11,-18,-12,-25,3,25
1461663697923914,29,12,-15,-15,-54,-57,-88,-49
1461663697939916,-13,-8,-11,50,31,24,15,3
1461663697939916,66,-6,14,-20,4,15,33,9
1461663697945923,11,-2,3,16,-13,13,-13,-25
1461663697945923,-5,-6,24,-128,-72,23,44,9
1461663697961957,-21,4,-43,109,97,4,-38,-8
1461663697961957,-16,-4,-13,-68,-48,-42,-15,22
1461663697962930,33,-6,16,-60,-13,10,17,-7
1461663697962930,5,15,68,98,96,22,6,-8
1461663697983959,-17,15,-33,-94,-45,-20,-24,-48
1461663697983959,64,-23,23,58,49,26,59,51
1461663697984944,-81,3,-69,-83,-49,27,19,17
1461663697984944,-16,-3,-17,67,34,-26,-57,0
1461663697999970,66,12,14,-12,-1,4,59,33
1461663697999970,-123,-5,26,33,-16,-5,-33,-40
1461663698005988,-127,7,-19,-5,-20,-47,-114,-68
1461663698005988,2,-4,-37,-30,-22,-29,-34,41
1461663698021999,19,7,11,-13,-6,15,46,11
1461663698021999,-39,-20,-33,-44,-33,-9,20,8
1461663698022979,57,0,31,65,39,14,34,24
1461663698022979,-55,-6,8,-83,-49,-6,3,-38
1461663698044003,-63,4,-36,37,-3,-15,-29,-19
1461663698044003,-3,-17,53,-2,28,16,27,1
1461663698044989,7,-8,4,63,14,15,4,1
1461663698044989,-18,4,-26,-77,-3,-12,1,-26
1461663698068059,39,4,80,92,23,1,12,12
1461663698068059,35,-10,-54,-28,14,42,59,25
1461663698069073,8,3,6,3,2,3,16,16
1461663698069073,-10,-2,-16,-20,-21,-29,-81,-6
1461663698082081,-4,-3,16,-26,-41,-34,-60,-18
1461663698082081,-47,-4,-34,-11,-19,-25,-11,-35
1461663698082081,23,-2,0,4,20,35,87,12
1461663698082081,-5,1,6,-1,-9,19,-1,-12
1461663698104111,-24,7,0,4,0,-22,-28,36
1461663698104111,-42,-6,-18,-39,-16,-13,-48,-49
1461663698105117,2,1,-24,-37,-20,4,30,1
1461663698105117,-9,2,86,81,49,27,23,8
1461663698120123,7,8,-12,68,30,4,-25,-8
1461663698120123,40,-10,-11,-9,11,10,33,48
1461663698126112,-29,2,12,-40,-5,-14,-27,-17
1461663698126112,-15,5,-13,-77,-68,-27,7,-24
1461663698141107,29,-1,53,84,92,41,43,-8
1461663698141107,17,-6,-39,-70,-22,-7,-6,10
1461663698149114,-70,4,-10,-5,-5,-6,-14,-17
1461663698149114,43,4,-47,-14,-22,-27,-7,53
1461663698164183,-79,-6,-18,-44,-40,-24,3,-19
1461663698164183,23,-10,18,-10,-29,24,1,-21
1461663698165127,36,6,12,26,20,-39,-72,-12
1461663698165127,10,1,-8,24,23,45,39,32
1461663698180146,-38,0,-10,-32,-22,13,13,-14
1461663698180146,34,-6,11,13,-2,-13,9,-4
1461663698186169,2,7,-12,6,-5,6,29,-5
1461663698186169,7,-4,15,34,10,-15,-9,6
1461663698201179,-24,-12,-8,-27,-4,-6,-9,9
1461663698201179,19,-20,-11,-29,15,6,-5,-6
1461663698209161,20,10,33,87,32,-3,-8,-9
1461663698209161,21,14,-9,70,42,-1,2,-13
1461663698224168,-23,-71,-9,-22,-24,6,12,15
1461663698224168,3,-71,-18,-33,-24,1,9,6
1461663698225189,-32,-48,-15,-6,-13,-18,-31,-30
1461663698225189,-10,-128,-1,-15,3,23,86,26
1461663698240179,15,-36,7,-15,6,-31,-11,1
1461663698240179,19,121,8,9,-17,6,-73,3
1461663698246199,-36,127,0,-3,0,6,-4,-6
1461663698246199,-17,127,-2,1,4,53,15,-1
1461663698261232,1,16,-9,-12,-1,-20,6,12
1461663698261232,-22,47,7,2,-15,-11,26,-9
1461663698268237,1,54,-4,-10,0,-5,5,8
1461663698268237,-6,-18,-7,-86,-18,-14,-14,-1
1461663698284238,3,-39,9,67,28,14,12,-2
1461663698284238,-14,11,18,11,13,-7,-7,-13
1461663698285239,-10,45,-17,10,21,16,-2,-4
1461663698285239,2,27,-12,1,10,-14,0,-10
1461663698300228,11,0,-8,-29,-24,2,-14,-4
1461663698300228,12,124,19,4,-16,-12,-5,-1
1461663698306240,-5,67,-6,-16,0,8,7,15
1461663698306240,-26,-114,-4,14,2,-19,-11,-12
1461663698321251,2,-97,-5,-20,-12,3,-7,-2
1461663698321251,-32,-100,5,13,0,-13,8,8
1461663698328256,32,-28,2,-6,1,32,31,24
1461663698328256,-8,-22,7,10,-2,-14,-34,-9
1461663698344291,8,-95,-9,0,-1,-12,-40,-24
1461663698344291,6,-22,-8,-6,7,5,14,-14
1461663698345253,-19,33,-1,1,-14,-14,-5,5
1461663698345253,8,29,-5,-27,-7,2,11,8
1461663698360277,12,13,20,-12,-1,12,16,1
1461663698360277,-13,5,-15,1,9,4,3,-1
1461663698374286,-18,23,7,22,16,-3,-5,0
1461663698374286,6,7,7,19,20,6,4,4
1461663698381290,5,10,1,-16,-5,2,0,-4
1461663698381290,-1,-13,-24,-11,-16,-8,-7,-6
1461663698388341,-14,6,3,-21,-23,-11,-4,-7
1461663698388341,10,-6,0,7,-3,-14,-12,2
1461663698404323,15,-6,18,10,16,8,-5,-2
1461663698404323,-29,-7,-11,0,-6,-14,5,-12
1461663698405324,-32,1,-6,-4,-1,19,12,8
1461663698405324,12,-92,-6,5,-10,-1,7,14
1461663698428311,61,-67,2,4,5,-1,1,9
1461663698428311,-43,7,-16,-12,-12,7,-10,-21
1461663698429327,-46,96,-3,-11,-12,-18,-15,-5
1461663698429327,44,115,8,13,9,7,9,16
1461663698441321,34,67,-5,-2,6,5,2,-17
1461663698441321,-17,-39,5,11,7,-5,-8,-8
1461663698448384,-63,-80,-10,-5,-4,-10,-4,-7
1461663698448384,38,-51,3,14,-2,2,4,10
1461663698464395,41,-68,-30,-12,-6,1,-14,-16
1461663698464395,-20,-4,24,-18,-5,0,-3,-3
1461663698465351,-53,-6,-5,13,10,-1,-5,-11
1461663698465351,27,14,32,17,-2,-6,-2,-1
1461663698480347,36,30,-38,-3,-1,4,8,6
1461663698480347,-24,23,4,7,1,-9,0,-5
1461663698486352,-37,2,5,2,0,-6,0,3
1461663698486352,28,1,7,-5,0,9,-6,0
1461663698501363,17,-20,-7,0,-2,-22,-7,3
1461663698501363,-17,-24,-1,-3,-2,34,8,-7
1461663698508372,-24,-45,-9,-10,-4,-20,-4,1
1461663698508372,19,-10,5,6,2,2,-6,2
1461663698525379,20,36,5,-5,-4,1,-5,4
1461663698525379,-13,40,-3,-7,-4,-17,-1,-2
1461663698525379,-21,-1,11,0,1,3,-1,-3
1461663698525379,10,20,-4,1,3,-3,-3,-1
1461663698540390,15,5,-9,-3,-2,-5,4,6
1461663698540390,-7,-6,-5,1,-2,0,1,-2
1461663698546407,-17,6,-4,4,2,10,1,1
1461663698546407,11,14,2,-2,-1,-7,-8,-3
1461663698561405,16,14,7,1,4,4,5,3
1461663698561405,-7,2,-6,3,-3,0,-2,-9
1461663698568448,-12,6,5,-5,-3,-2,-3,0
1461663698568448,2,-8,7,-3,-1,-3,0,5
1461663698584480,11,5,22,5,0,4,4,0
1461663698584480,-9,-27,-18,0,3,-2,-4,-8
1461663698585442,-6,0,12,1,0,-7,-1,2
1461663698585442,3,-5,-41,-1,3,5,-2,2
1461663698600445,8,23,15,4,-1,3,2,2
1461663698600445,-5,-6,-7,-3,-2,-4,-1,-2
1461663698606495,-6,2,0,0,-2,-9,-1,-1
1461663698606495,2,-5,-13,-8,-4,-3,-1,-2
1461663698621506,2,-4,-4,-6,-1,9,7,2
1461663698621506,-3,-5,3,-1,1,-2,-2,-1
1461663698628464,-4,5,2,-4,0,1,-2,0
1461663698628464,6,15,22,11,2,0,-2,-2
1461663698644488,3,5,-15,-7,-4,-4,-3,-3
1461663698644488,-4,12,4,-1,-3,-2,1,2
1461663698645469,-3,-5,-23,2,-2,2,5,9
1461663698645469,6,-19,-27,-8,1,12,0,-5
1461663698660501,7,-39,-24,9,5,4,6,0
1461663698660501,-7,1,50,-10,-9,-2,-4,-8
1461663698666538,-2,9,33,-1,0,-5,3,6
1461663698666538,5,7,-2,2,-3,-4,-1,1
1461663698681506,7,10,-2,1,0,1,-2,-3
1461663698681506,-6,7,-3,2,-1,-3,-1,1
1461663698688553,-6,7,3,-3,-2,0,-3,-4
1461663698688553,-1,-1,3,3,3,-2,0,-1
1461663698704530,5,13,12,-3,-3,-3,-4,-1
1461663698704530,-6,-1,-11,4,1,-4,-1,-1
1461663698705532,-5,-7,-3,-5,-4,-1,-4,-3
1461663698705532,4,2,5,0,-2,-4,-2,-2
1461663698720525,2,1,-16,-4,-3,-1,3,2
1461663698720525,-10,-13,-43,-3,-1,1,-5,-4
1461663698726522,-5,-9,-2,-3,-2,-12,-6,-1
1461663698726522,3,-5,-18,-9,-4,10,7,1
1461663698741532,3,8,15,4,5,2,2,-4
1461663698741532,-8,-11,-18,-5,-2,1,3,10
1461663698748576,-1,8,44,3,-1,1,-2,-6
1461663698748576,10,7,24,14,4,-4,3,4
1461663698764588,-2,-9,-24,-18,-7,-8,-2,1
1461663698764588,-3,2,-17,3,1,-4,-2,-7
1461663698764588,-7,-9,-14,-14,-8,0,0,4
1461663698764588,2,-3,19,-7,-5,1,4,3
1461663698780572,5,5,16,7,2,5,0,-5
1461663698780572,0,-12,-8,1,3,-4,-2,3
1461663698786578,-2,-5,-19,5,2,3,0,-1
1461663698786578,3,0,-12,-2,-3,-10,-6,-4
1461663698801575,0,5,21,0,-2,3,-2,0
1461663698801575,-2,6,14,-5,-3,-12,-5,-6
1461663698808604,-6,-13,-6,2,0,8,-1,-3
1461663698808604,1,0,-11,-2,1,0,0,1
1461663698824593,-5,-7,4,5,1,-6,-1,0
1461663698824593,-1,1,-14,-10,-4,2,-2,-4
1461663698824593,0,-1,-12,3,3,-3,-1,-4
1461663698824593,2,14,62,5,-1,-10,0,4
1461663698839662,-2,-24,-70,-7,0,13,3,-2
1461663698839662,-6,7,57,6,-1,-4,-1,-3
1461663698846649,-7,-29,-58,-12,-3,-7,3,8
1461663698846649,-4,11,16,-4,-6,-2,-13,-15
1461663698861619,1,-3,-7,-7,-2,11,-3,-1
1461663698861619,0,-3,-13,1,1,-3,3,-8
1461663698868624,12,24,27,8,3,2,-18,9
1461663698868624,-7,-29,-43,-7,-2,-4,13,5
1461663698884649,3,3,1,-2,-2,-3,3,-1
1461663698884649,2,3,2,1,-3,2,-2,0
1461663698884649,-12,-11,2,1,2,-2,-3,-3
1461663698884649,-1,1,1,-3,-2,1,-9,-2
1461663698899756,-3,7,23,1,-3,-7,-6,-3
1461663698899756,2,9,14,-3,-3,-1,3,-1
1461663698905757,2,4,11,0,-1,-1,-1,-4
1461663698905757,-4,-17,-49,0,3,2,0,0
1461663698920767,-3,-2,8,5,-2,-4,3,1
1461663698920767,-2,-9,-4,-4,2,-3,-6,-6
1461663698928758,2,5,-13,-8,-1,2,3,-1
1461663698928758,1,6,23,15,7,0,2,4
1461663698944775,6,11,15,-1,0,-2,0,1
1461663698944775,-3,-6,15,0,-5,-2,-5,-6
1461663698944775,5,4,-19,-6,-6,1,0,-3
1461663698944775,-1,6,8,-3,0,2,1,0
1461663698959818,-2,4,2,-1,-4,-7,-3,-8
1461663698959818,-14,-8,-13,-2,-3,-2,-22,-2
1461663698966818,-2,-12,11,-1,0,6,20,5
1461663698966818,7,-2,-16,-1,1,0,5,2
1461663698982799,-4,-4,19,1,3,3,21,5
1461663698982799,-4,-4,-16,-4,-3,0,-11,-9
1461663698988830,0,3,8,2,1,-3,-5,-1
1461663698988830,2,0,-10,-2,-2,-3,-10,-3
1461663699003831,0,-2,6,-10,-8,-4,-9,-4
1461663699003831,-5,-4,8,-3,-5,0,9,3
1461663699004825,-2,-3,-7,25,22,8,-4,4
1461663699004825,4,1,1,3,1,1,2,-1
1461663699019824,-5,-2,8,0,2,-1,-4,-4
1461663699019824,-5,-2,-3,-10,-4,0,2,0
1461663699025844,0,0,-4,-8,-9,-4,-1,1
1461663699025844,-4,-9,-15,-6,-3,0,-4,-1
1461663699040838,1,3,0,1,-1,-1,-4,-3
1461663699040838,0,2,-2,2,-1,-3,-3,-1
1461663699048883,-1,-2,-1,-2,-4,0,-2,0
1461663699048883,0,2,0,0,1,1,7,3
1461663699063894,-2,-9,-25,-7,-2,-4,-10,-10
1461663699063894,0,-7,-9,0,2,4,4,1
1461663699070899,-3,3,13,-4,-3,-3,2,1
1461663699070899,-1,1,15,-2,-4,-1,-1,7
1461663699079866,4,9,12,8,4,2,-6,-2
1461663699079866,-1,0,13,0,-1,-2,2,0
1461663699085911,0,-4,-16,-1,-2,-3,-3,1
1461663699085911,2,3,-24,-10,-2,0,2,-2
1461663699100885,-2,-5,12,4,1,-4,-3,-2
1461663699100885,2,-2,-14,0,2,1,6,1
1461663699108891,-5,0,8,-2,-4,-2,-2,1
1461663699108891,-2,-3,11,2,-1,-1,-1,-3
1461663699123900,1,2,-16,1,0,-1,-2,0
1461663699123900,-3,-2,2,-5,-6,-3,-3,-4
1461663699130903,7,8,-3,-4,0,0,-1,1
1461663699130903,-9,-7,11,6,2,-2,-5,-5
1461663699146971,-1,3,21,3,1,0,0,-3
1461663699146971,-1,-6,-22,-3,0,0,0,1
1461663699147949,1,5,14,-4,-3,0,1,1
1461663699147949,0,-11,-22,-8,-2,-1,-5,-3
1461663699160981,-2,3,-1,-9,-6,-2,2,-2
1461663699160981,-4,-1,0,7,2,0,1,-1
1461663699168962,1,-7,-7,-1,-1,-2,-5,-1
1461663699168962,3,4,7,-1,0,0,-2,-2
1461663699183941,-4,-5,-8,-1,-2,0,1,-3
1461663699183941,2,7,11,1,-2,-4,-3,2
1461663699190946,-3,-2,-3,-3,-2,0,-1,1
1461663699190946,-4,-1,13,-1,-3,0,0,-2
1461663699206955,-3,-4,-4,-4,-3,-1,0,-5
1461663699206955,-2,2,4,2,0,0,-2,-2
1461663699207955,2,3,14,3,2,-1,-2,2
1461663699207955,-3,-12,-29,-6,0,1,1,0
1461663699220965,1,1,-4,-2,-2,1,-2,-3
1461663699220965,-4,-1,8,-1,-3,-1,-1,-4
1461663699228971,-2,1,-2,-11,-11,-3,-1,3
1461663699228971,2,0,-11,-2,0,-1,-1,-2
1461663699243983,1,10,9,19,11,3,1,-1
1461663699243983,1,-5,7,9,4,-1,-1,1
1461663699250987,-1,-1,-19,-2,3,2,-2,1
1461663699250987,-2,-10,-4,-13,-12,-5,-4,-4
1461663699259992,-1,5,-12,-7,-7,-4,-1,-4
1461663699259992,-1,-8,17,-2,-2,-2,-1,-4
1461663699265998,-2,-1,-10,-5,-2,1,0,2
1461663699265998,0,-2,-7,1,2,-3,-1,-1
1461663699281007,1,-9,-6,-1,0,-2,-1,-2
1461663699281007,1,-8,2,4,1,-3,-2,0
1461663699289072,4,29,3,-3,-4,-1,-1,2
1461663699289072,4,6,5,0,-2,2,3,1
1461663699304054,-14,-25,-13,-7,-2,-2,-2,-5
1461663699304054,2,14,0,1,2,2,1,2
1461663699311058,2,-1,11,6,3,-1,0,0
1461663699311058,1,6,-6,-5,-9,-3,-3,0
1461663699327055,5,2,-7,13,13,4,0,-3
1461663699327055,1,-4,5,-3,-3,-4,-3,0
1461663699327055,-7,-4,-2,-4,0,-1,0,-2
1461663699327055,3,9,30,7,3,0,1,0
1461663699341053,-2,-2,13,-6,-5,-2,-1,-3
1461663699341053,-2,-10,-33,-5,1,-1,0,-1
1461663699349072,-2,-8,-14,5,2,-2,0,1
1461663699349072,-6,-5,4,-5,-4,-2,-2,-2
1461663699364066,1,-3,-4,-5,-8,-2,-2,-4
1461663699364066,6,12,5,-1,-2,-1,-3,1
1461663699371111,-5,-9,5,-6,-4,-1,1,2
1461663699371111,0,-2,-3,7,6,2,0,0
1461663699386097,-3,-3,-3,-3,0,-2,-1,-2
1461663699386097,-1,4,0,-4,-4,-2,-1,-1
1461663699394103,-1,-14,-13,2,0,-1,-1,1
1461663699394103,2,8,-5,1,1,0,0,0
1461663699401109,10,20,39,6,-1,-1,-1,-1
1461663699401109,-10,-6,-27,-16,-8,0,0,-2
1461663699409116,-4,-14,-7,10,4,-2,-3,0
1461663699409116,-8,-6,10,6,5,1,2,-2
1461663699423169,4,0,-12,-4,-3,-1,-2,-3
1461663699423169,2,-18,3,-4,-3,-2,-1,0
1461663699431131,-8,4,16,-3,-2,0,0,-1
1461663699431131,-3,0,-22,-3,-1,0,-2,0
1461663699446137,-4,0,-5,1,-1,-1,0,-3
1461663699446137,0,-3,-8,-6,-4,-4,-2,-2
1461663699454189,0,0,5,4,4,1,1,3
1461663699454189,-3,1,14,3,0,0,0,-1
1461663699461194,-4,-4,-7,-8,-4,-2,1,-1
1461663699461194,2,-2,-4,-3,-2,-1,-2,1
1461663699468199,1,3,6,0,0,0,-2,2
1461663699468199,-1,6,-7,3,2,-1,0,0
1461663699484154,0,-4,-10,-4,-3,0,-1,-4
1461663699484154,3,6,2,2,0,-3,-1,0
1461663699491158,-4,-5,7,-6,-3,-1,0,0
1461663699491158,-1,7,-2,2,3,2,1,1
1461663699507167,-3,-12,-10,-7,-3,-3,-2,-5
1461663699507167,3,3,0,6,3,-3,-2,-3
1461663699507167,7,7,0,8,10,1,0,4
1461663699507167,-9,-14,15,2,-3,-1,-3,-2
1461663699521178,1,-5,-39,-9,-5,1,-1,-3
1461663699521178,-8,-9,3,0,-1,-1,-2,-1
1461663699537188,3,3,0,-1,-1,-2,1,2
1461663699537188,3,11,5,-3,-2,-2,2,-1
1461663699543192,-7,-7,11,1,-1,-1,-1,-2
1461663699543192,-3,-6,-8,0,-2,-1,-2,0
1461663699559204,1,4,-7,-4,-3,-2,-1,2
1461663699559204,-1,4,2,-2,0,0,-1,-1
1461663699567209,0,-1,5,-1,-1,0,-2,-4
1461663699567209,2,-2,-8,-4,-2,0,-1,-1
1461663699567209,-5,-4,-5,-2,-3,-3,-1,0
1461663699567209,-2,-3,-5,-6,0,-1,-2,0
1461663699581220,-1,4,10,15,2,-1,-1,-2
1461663699581220,1,1,2,-1,0,-1,-2,1
1461663699588264,0,-2,1,1,0,1,0,1
1461663699588264,2,-8,-6,-9,-4,-2,-2,-2
1461663699603253,1,2,4,0,-1,-2,-4,-3
1461663699603253,4,8,9,0,0,-1,-1,1
1461663699611303,-3,-2,-11,-4,-3,0,0,2
1461663699611303,-7,-13,3,-2,-2,2,0,-4
1461663699627253,0,1,4,-10,-4,-1,-1,-4
1461663699627253,3,5,3,4,0,-2,-2,0
1461663699627253,0,-5,-4,-3,0,0,0,1
1461663699627253,-1,-1,-6,2,1,-4,1,-1
1461663699641262,1,-2,5,0,-1,-3,-2,-2
1461663699641262,-4,0,-4,-5,-3,-1,-1,-1
1461663699648327,-1,2,4,-2,-3,-1,-1,-2
1461663699648327,6,4,-3,1,-2,-1,-2,-1
1461663699672301,-4,6,1,-7,-1,-2,-3,-3
1461663699672301,-5,-20,-17,-6,-3,-3,-2,-2
1461663699672301,-1,2,12,0,-1,0,-1,0
1461663699672301,-2,0,-1,1,0,0,-1,-3
1461663699686313,1,7,13,4,0,1,1,-1
1461663699686313,-4,-8,-16,-5,-2,0,-1,1
1461663699687295,2,4,-16,-4,-1,-1,0,1
1461663699687295,-3,-8,8,-2,-7,-2,-3,-2
1461663699701364,-3,4,2,3,4,0,0,-3
1461663699701364,0,-1,0,3,-1,-2,-3,2
1461663699708368,2,6,3,1,0,-1,-2,0
1461663699708368,2,-2,-2,1,3,1,2,-1
1461663699723384,-4,1,-7,-4,-6,-3,-4,-4
1461663699723384,-5,-2,1,-3,0,2,0,-1
1461663699731338,-1,-7,-3,-2,0,-2,0,0
1461663699731338,2,5,2,0,2,-3,-2,-1
1461663699746362,-4,-4,-13,1,0,-1,-2,-1
1461663699746362,-1,3,14,-3,-2,0,1,1
1461663699747338,1,0,11,1,-2,-1,-2,-1
1461663699747338,1,5,3,0,0,1,0,-1
1461663699761418,2,-4,-4,-3,-2,-1,1,-2
1461663699761418,-1,1,-2,1,0,-2,-1,1
1461663699777364,-2,-5,-3,-2,-2,-1,-1,-1
1461663699777364,-1,-3,-12,2,2,-1,1,-2
1461663699783369,-3,0,7,-1,-4,-2,-2,-5
1461663699783369,0,-3,-2,-5,-2,-2,-1,0
1461663699791375,2,3,-3,-1,1,-1,-2,0
1461663699791375,0,-5,-5,0,0,-2,-2,-2
1461663699806381,-6,-5,-3,-1,-2,-1,-3,-4
1461663699806381,1,4,0,1,-3,-1,-2,-1
1461663699807382,-3,-7,-8,-1,0,2,0,1
1461663699807382,5,9,-1,1,-2,-1,-1,0
1461663699821404,-2,-5,-6,-6,-3,-4,-2,-2
1461663699821404,-1,-2,5,2,0,1,1,2
1461663699836459,2,5,1,0,0,0,0,1
1461663699836459,-4,-7,-3,-2,0,0,0,-2
1461663699843464,-3,-1,-1,-1,-2,-1,-1,-2
1461663699843464,0,7,10,2,0,-1,-1,-1
1461663699851471,0,-6,-18,-2,-2,-1,0,0
1461663699851471,0,6,2,1,0,0,-1,-2
1461663699866492,-7,-16,2,-1,-6,-3,-2,-5
1461663699866492,-1,7,-3,-1,-2,-1,-1,0
1461663699867450,-2,2,5,4,2,-1,0,0
1461663699867450,6,4,-2,1,2,0,0,-1
1461663699881457,-7,-13,-2,-4,-4,-1,-2,-3
1461663699881457,-3,-6,-6,-3,-2,-1,-2,0
1461663699888462,-6,-14,2,2,-2,-2,-2,-2
1461663699888462,-2,-2,-3,1,-2,-2,1,-1
1461663699903449,4,12,-1,1,0,-2,-1,-4
1461663699903449,-2,1,-1,-3,-3,-3,-2,0
1461663699911482,1,-1,9,1,-2,0,1,0
1461663699911482,-1,1,1,-5,-2,-2,-1,-1
1461663699926479,-1,-5,-11,1,2,1,-1,-3
1461663699926479,-1,4,-4,-4,-1,-2,-2,0
1461663699927466,-3,-10,-18,-2,-2,-1,-1,2
1461663699927466,-1,0,6,1,0,-2,0,-4
1461663699941491,-1,-3,-2,-4,-1,0,-1,-2
1461663699941491,1,-5,-18,-3,-2,-2,-1,1
1461663699948495,-1,4,22,2,1,-1,-1,-1
1461663699948495,-1,1,2,2,-2,-1,-1,-2
1461663699963529,2,4,-2,-3,-3,-2,-1,-1
1461663699963529,1,-5,-4,-1,1,0,-3,1
1461663699971557,-4,-13,-5,-4,-4,-1,-2,-1
1461663699971557,-7,-10,1,-3,0,1,-1,-4
1461663699986597,-4,2,-1,2,1,0,0,-2
1461663699986597,-1,0,12,1,-1,-2,-1,0
1461663699987599,2,13,0,-2,-1,-2,-1,0
1461663699987599,3,5,-1,-3,-1,1,-1,-3
1461663700001579,2,1,-6,-3,-4,-2,-3,-3
1461663700001579,-1,-8,-2,0,3,2,1,2
1461663700008586,2,-4,1,1,1,-2,-2,0
1461663700008586,-1,-1,-5,-1,-2,-3,0,0
1461663700023595,-1,1,11,0,0,-2,-2,-3
1461663700023595,0,-3,3,0,-3,-1,0,0
1461663700031601,5,9,-4,-4,0,-1,-1,3
1461663700031601,-2,-2,-4,-1,1,1,0,-1
1461663700046650,-7,-14,-10,-6,-3,-2,0,-3
1461663700046650,-2,3,5,1,0,-1,0,2
1461663700053675,0,2,1,-2,-1,-1,-1,1
1461663700053675,-1,-3,-5,-1,1,-2,-1,-1
1461663700062625,5,8,8,0,-1,-1,0,-1
1461663700062625,1,-2,-2,6,3,2,0,2
1461663700068686,-7,-8,-6,-1,-2,0,-1,-1
1461663700068686,0,3,6,-1,-1,0,0,-2
1461663700091642,0,0,-6,-3,-3,0,-2,-3
1461663700091642,0,-4,-7,-3,-2,-2,-1,-1
1461663700092643,1,11,8,0,-2,1,0,0
1461663700092643,-4,-13,3,1,1,-1,0,-2
1461663700106670,-1,-1,-3,-1,-1,-1,0,-2
1461663700106670,-2,1,-4,-3,-2,-3,-1,2
1461663700113717,-3,-8,-12,1,0,0,1,2
1461663700113717,-3,3,7,-3,-1,-2,-2,-4
1461663700122665,-4,-5,-3,1,-2,0,0,-3
1461663700122665,4,8,-2,2,5,1,1,2
1461663700128669,-4,-6,-1,-2,-1,-2,-2,-1
1461663700128669,-1,4,8,1,-1,0,-2,-1
1461663700143680,-1,-7,-6,-4,-1,-2,-2,-2
1461663700143680,3,3,6,0,-2,-2,-2,1
1461663700150713,2,0,-4,-1,0,0,0,0
1461663700150713,2,2,1,-1,-2,0,-1,-2
1461663700174727,-2,-1,5,0,-1,1,0,-2
1461663700174727,-2,-7,-6,1,0,0,0,2
1461663700174727,3,4,3,0,1,0,0,-2
1461663700174727,3,2,-16,-3,-3,-2,-1,-3
1461663700189735,-3,3,4,-2,-3,-3,-4,-2
1461663700189735,-1,-9,-4,-3,-3,-1,-2,2
1461663700189735,-3,1,7,1,0,-1,-1,-1
1461663700189735,1,-1,3,-6,-3,0,1,0
1461663700203722,-4,-11,-7,-4,-1,-3,-3,-2
1461663700203722,-7,0,2,-4,-3,-1,0,-2
1461663700210727,1,-2,-1,6,2,0,1,1
1461663700210727,-7,-11,-18,-5,-3,-3,-1,-4
1461663700225796,0,2,8,0,-1,-1,0,-1
1461663700225796,2,-1,-4,-2,-1,-2,0,1
1461663700233803,1,-1,-6,-2,-1,-2,-1,-2
1461663700233803,2,2,9,2,-1,0,0,-2
1461663700248769,1,3,-11,-6,-3,-2,-1,-2
1461663700248769,-3,3,15,-2,-1,0,-2,-1
1461663700256809,-4,-7,-14,-2,-1,-1,-2,-1
1461663700256809,2,8,5,-2,1,-2,-2,-1
1461663700263780,0,-2,-6,-1,-1,0,0,0
1461663700263780,-1,-9,-7,0,-1,0,-2,1
1461663700270785,2,10,16,-3,-3,0,1,2
1461663700270785,-1,-1,-8,3,1,-2,-1,-2
1461663700285792,-6,-17,-9,1,-1,-2,-2,-1
1461663700285792,-5,-7,19,-3,-1,-3,-1,1
1461663700293845,-3,-3,-17,-3,1,0,-2,-1
1461663700293845,-5,-6,0,-1,-2,1,-1,-4
1461663700309814,0,1,-5,-2,-3,-2,-3,-3
1461663700309814,3,8,-10,-1,0,-1,-1,2
1461663700309814,-2,-3,5,2,-2,-2,-1,0
1461663700309814,5,7,6,-1,-1,0,0,0
1461663700323810,-7,-10,-6,-1,-1,-1,2,-2
1461663700323810,2,5,10,-2,-1,-2,-7,-4
1461663700330839,4,2,-7,0,0,1,7,6
1461663700330839,-2,-2,-9,-3,0,1,3,1
1461663700345849,0,-4,12,-1,-3,-3,-12,-6
1461663700345849,0,6,-1,-2,-1,-2,0,2
1461663700353853,-3,-5,-12,-2,1,1,-4,-5
1461663700353853,-3,-9,-6,-1,-1,0,3,2
1461663700368847,-3,-10,-12,-3,-3,-1,-2,-4
1461663700368847,5,9,10,2,0,-1,0,5
1461663700369864,-4,3,7,1,1,1,1,1
1461663700369864,-2,-10,-12,-1,-1,-2,-2,-3
1461663700383867,-2,11,11,1,0,-1,-1,-2
1461663700383867,-4,-11,-16,-4,-3,-2,-2,-1
1461663700390856,3,7,10,1,-1,0,1,-2
1461663700390856,-3,-10,-19,-1,0,-2,-4,-5
1461663700405924,1,7,15,-2,-2,-2,0,-2
1461663700405924,-1,3,-4,1,0,1,3,5
1461663700413929,1,-5,-12,-2,1,-1,-2,0
1461663700413929,1,8,31,1,-3,-2,-2,-3
1461663700428983,-1,-5,-12,-4,-2,-2,1,-1
1461663700428983,-5,-15,-46,-5,-1,1,-1,1
1461663700429973,0,1,19,1,-1,-2,-3,0
1461663700429973,2,3,-23,-2,0,-1,-2,-3
1461663700443994,4,8,19,4,1,-1,2,0
1461663700443994,-4,1,21,5,1,-1,2,3
1461663700451045,-3,13,-3,-4,-2,-1,-4,-5
1461663700451045,-7,-7,6,1,-1,0,1,-2
1461663700466056,-2,2,-3,-2,-4,-1,-3,-2
1461663700466056,5,4,-1,-2,0,0,2,3
1461663700474002,3,4,22,-1,0,-2,1,2
1461663700474002,-2,-7,-19,-1,-2,-3,-2,-4
1461663700490013,0,-2,-11,-4,-2,0,1,0
1461663700490013,1,0,-5,3,3,2,-1,0
1461663700497018,0,-3,15,-4,-4,-2,-1,1
1461663700497018,0,2,16,2,1,-3,-3,-3
1461663700504023,0,-5,-61,3,7,0,-2,1
1461663700504023,-5,0,47,-2,-4,-2,-2,-1
1461663700511041,3,-5,-18,2,3,3,2,0
1461663700511041,-1,0,3,-5,-6,0,-1,-7
1461663700526039,-3,3,10,-3,-6,-2,3,4
1461663700526039,1,1,-26,3,4,0,-2,2
1461663700534045,0,-6,-1,-6,-7,-2,-1,0
1461663700534045,2,6,21,4,1,-1,-1,-2
1461663700549057,-7,-10,-6,-2,1,0,0,-2
1461663700549057,-3,3,3,-4,-3,-1,-1,-3
1461663700550056,3,-3,-1,-3,-2,-4,-2,0
1461663700550056,1,-2,-13,-5,-5,-3,-1,-2
1461663700564066,-1,0,13,7,4,2,-1,-4
1461663700564066,-1,3,17,7,2,-1,-1,-1
1461663700571110,-6,-21,-59,-18,-10,-2,0,-1
1461663700571110,-5,0,5,-16,-3,-1,-2,-3
1461663700586102,-4,0,4,-3,-9,-3,-4,-5
1461663700586102,3,1,0,-1,4,0,1,5
1461663700594088,4,13,13,9,1,-1,3,-1
1461663700594088,-6,-9,13,13,8,0,-4,0
1461663700609118,3,4,15,-5,-5,-1,-1,-2
1461663700609118,-7,-13,-7,6,-5,-1,5,0
1461663700610099,-1,1,-9,-9,-2,-1,-7,-3
1461663700610099,1,1,-17,11,5,1,1,1
1461663700624109,5,18,20,5,7,-1,-5,0
1461663700624109,-2,-3,-1,-10,-5,-2,-2,1
1461663700631126,-1,-5,3,4,2,0,5,1
1461663700631126,2,1,8,-1,0,2,1,-5
1461663700646153,-1,-7,-25,-5,0,1,1,-2
1461663700646153,2,7,-5,-7,-4,-1,-1,3
1461663700654131,-2,-4,4,1,0,-2,-7,-3
1461663700654131,1,2,-14,-10,-2,2,3,-1
1461663700669203,-1,-7,-6,-11,-9,-4,2,-3
1461663700669203,-7,-5,4,-8,-8,0,2,-2
1461663700670151,-1,3,12,0,3,4,-3,1
1461663700670151,3,0,-18,-14,-12,-5,11,1
1461663700684153,5,1,19,33,16,-3,-21,0
1461663700684153,-13,-5,6,9,2,-2,1,1
1461663700691174,7,1,3,7,13,4,-9,2
1461663700691174,-11,-3,3,-3,-11,-11,-12,-5
1461663700706196,-6,6,-10,-13,-2,-1,-4,0
1461663700706196,7,-6,-8,13,8,3,4,3
1461663700714174,-2,-1,14,8,2,1,10,-2
1461663700714174,5,-7,-16,-12,-7,1,1,-5
1461663700731201,-1,11,15,-12,-8,0,6,-2
1461663700731201,6,-3,-10,0,-2,-2,-8,-2
1461663700731201,0,-3,-7,-6,-3,0,3,-3
1461663700731201,2,14,17,7,4,3,-3,-4
1461663700743193,5,7,-2,-10,-7,0,2,-5
1461663700743193,7,8,1,5,-1,0,3,6
1461663700751202,-2,-4,-12,0,7,4,9,10
1461663700751202,-18,-26,-18,18,3,5,12,-1
1461663700766269,0,-7,17,-10,-3,-3,-3,2
1461663700766269,-5,-6,-17,-12,-6,-14,-44,-14
1461663700773273,8,11,-8,-16,-4,-14,-24,-7
1461663700773273,-1,25,38,18,-4,-16,-24,-6
1461663700789284,-25,-62,-49,3,-3,-4,2,-6
1461663700789284,9,11,10,-27,-10,6,34,5
1461663700790227,-1,-9,12,21,12,7,12,2
1461663700790227,-4,-20,-5,6,19,9,5,2
1461663700804241,4,7,9,20,-4,-5,-5,-1
1461663700804241,5,10,-7,4,6,1,0,4
1461663700811270,-4,28,6,-20,-18,-2,4,1
1461663700811270,-18,12,6,-14,-18,2,7,-20
1461663700826267,6,8,4,-15,4,9,7,6
1461663700826267,11,6,2,23,10,11,32,19
1461663700833272,2,14,9,12,9,2,-11,-2
1461663700833272,-6,-16,-24,-34,-24,-14,-19,-10
1461663700849327,-5,3,0,-1,2,2,-11,-3
1461663700849327,2,1,3,-12,-5,-15,-27,-4
1461663700850295,2,-14,-3,6,-16,-11,-6,2
1461663700850295,-12,-2,-12,29,19,-6,-10,0
1461663700863336,-9,-1,-27,-65,-32,-22,-30,-14
1461663700863336,8,-11,15,11,-5,-6,-4,2
1461663700871341,2,8,-5,66,44,17,19,3
1461663700871341,10,-6,3,-36,-9,7,13,-2
1461663700886330,-4,-16,36,31,12,26,57,15
1461663700886330,-3,-9,-22,-44,-9,2,-12,2
1461663700893329,-14,-14,-33,-16,-8,-11,-20,-15
1461663700893329,-11,15,14,-2,-9,-6,-2,-6
1461663700909339,24,31,-8,39,30,13,26,10
1461663700909339,-4,-15,10,10,-6,10,21,7
1461663700910320,-11,-12,-9,-48,-25,-3,-22,-12
1461663700910320,-14,-51,6,9,1,-9,4,-11
1461663700923336,27,-2,-2,-12,-12,-13,-22,13
1461663700923336,-10,-12,1,-9,-17,-13,-35,-11
1461663700931342,-3,-14,9,3,11,8,16,11
1461663700931342,24,-13,-12,-35,-12,-9,-26,10
1461663700946396,-14,-46,-15,22,16,-3,-4,-24
1461663700946396,-24,-6,7,17,4,7,19,13
1461663700953342,-18,-22,13,2,-8,2,14,9
1461663700953342,26,26,-10,-39,-22,-9,-11,-14
1461663700969412,21,77,5,3,-1,1,-3,7
1461663700969412,1,85,-1,-53,-14,-5,-36,-17
1461663700970359,-24,50,-8,14,-3,-14,0,-14
1461663700970359,12,59,37,10,12,20,45,8
1461663700983421,5,-11,4,63,50,10,5,-1
1461663700983421,2,33,-37,5,-3,11,33,18
1461663700991383,21,33,27,11,3,-1,-21,-8
1461663700991383,9,-17,-37,14,5,1,5,0
1461663701007384,-28,-58,8,-56,-35,-7,18,8
1461663701007384,-32,-56,11,-11,2,4,30,-9
1461663701013442,-10,-72,-1,34,14,2,-4,11
1461663701013442,-25,9,-25,12,3,-18,-68,-11
1461663701036511,27,-4,4,-3,-16,-10,-12,33
1461663701036511,6,-79,-7,-16,-1,-2,27,-2
1461663701037492,-28,79,-8,-93,-43,-16,-37,-28
1461663701037492,1,24,15,61,24,-13,-43,-26
1461663701045498,-16,-31,2,-32,-27,-12,-12,-10
1461663701045498,18,-10,25,110,65,22,28,15
1461663701051560,5,-88,6,-14,-11,8,27,-2
1461663701051560,-14,-51,-7,-61,-10,13,59,11
1461663701066549,-10,17,18,53,46,16,-6,2
1461663701066549,31,-4,-2,-28,-16,3,6,10
1461663701073580,-60,-13,12,21,12,12,18,1
1461663701073580,3,41,-30,-33,-13,-9,-10,8
1461663701088586,-9,-15,-12,-96,-79,-32,11,-26
1461663701088586,25,100,-7,54,70,8,-52,-12
1461663701096548,13,69,16,29,3,-28,-49,6
1461663701096548,3,8,35,9,-1,29,80,24
1461663701113576,13,-9,-28,-9,8,23,15,4
1461663701113576,68,52,1,-37,-47,-48,-78,4
1461663701114548,-62,4,-44,-53,-33,-7,29,-13
1461663701114548,-15,-46,3,41,31,-4,-50,-18
1461663701126557,0,70,17,27,-5,-9,8,-11
1461663701126557,-5,-128,-29,-95,-28,-2,6,6
1461663701133562,44,-11,20,89,53,10,3,21
1461663701133562,36,28,-43,17,16,9,14,11
1461663701148635,19,10,14,-29,-30,-8,-22,-12
1461663701148635,-60,37,-24,64,52,18,25,-7
1461663701156640,33,61,6,-34,-18,18,92,21
1461663701156640,-7,-41,1,48,20,16,-27,-17
1461663701171645,24,32,12,-9,-23,-40,-78,-9
1461663701171645,19,9,14,-5,0,-3,15,21
1461663701172610,-80,-57,28,-13,-3,12,1,-32
1461663701172610,108,18,19,8,18,29,68,57
1461663701186654,-14,-1,-80,-61,-27,-14,-5,0
1461663701186654,-106,73,48,58,3,-24,-47,-40
1461663701193617,33,20,-36,-26,-14,-29,-31,-1
1461663701193617,-1,-54,24,-60,-48,19,87,42
1461663701208672,15,-23,-14,86,51,9,-69,-20
1461663701208672,-69,66,1,-13,-13,-19,-20,-32
1461663701216678,-65,32,5,-23,-22,-9,-59,-53
1461663701216678,17,37,19,7,-16,-13,-31,-8
1461663701231644,106,-40,-18,-34,16,22,75,62
1461663701231644,-74,-29,-17,-15,-11,16,38,-2
1461663701232645,-48,18,50,-19,-31,-10,-8,-36
1461663701232645,37,61,-73,48,55,3,7,14
1461663701246639,75,22,32,8,-8,12,25,11
1461663701246639,-36,27,4,58,1,2,-35,-52
1461663701253660,24,-36,6,2,42,8,-7,37
1461663701253660,25,-49,52,79,30,-9,-26,-8
1461663701268715,-20,-76,-19,-39,4,44,114,46
1461663701268715,-19,-24,-68,-38,-28,-37,-76,-51
1461663701276676,-41,31,19,43,12,-1,-1,19
1461663701276676,40,-42,14,-20,-8,19,-2,13
1461663701291686,-16,-27,-1,1,-17,-45,-81,11
1461663701291686,-17,-18,17,-9,-30,-53,-70,-55
1461663701292673,-38,39,-37,16,2,-9,-17,-6
1461663701292673,28,-37,-31,-67,-32,-3,42,-15
1461663701307685,26,-47,63,16,-27,27,18,16
1461663701307685,-23,37,-16,16,48,38,19,39
1461663701313769,-21,31,-23,-32,-7,0,4,-8
1461663701313769,29,-38,19,-45,-11,-8,15,-8
1461663701328765,1,-26,-20,-52,-24,-4,-9,-10
1461663701328765,10,20,39,74,23,5,-4,10
1461663701344777,-50,22,-8,21,-5,-10,-1,-6
1461663701344777,3,-32,2,-81,-15,5,19,4
1461663701351824,18,-5,-8,51,27,6,6,-12
1461663701351824,-19,20,-20,-114,-43,-23,-3,48
1461663701352766,97,20,-31,50,59,19,72,71
1461663701352766,-61,-22,42,58,9,-13,-113,-96
1461663701367776,-15,-17,36,14,13,-15,-60,-66
1461663701367776,0,-10,-16,-40,-20,12,11,42
1461663701373785,-52,10,-2,-41,-44,-28,3,9
1461663701373785,22,-26,-49,-34,-22,-18,-2,22
1461663701389856,11,5,10,7,20,37,9,-47
1461663701389856,-34,43,6,-128,-87,-17,33,2
1461663701395812,34,27,40,60,90,41,15,21
1461663701395812,24,-5,35,26,9,-18,-26,-21
1461663701411867,6,-14,-64,-79,-36,-7,23,1
1461663701411867,6,-6,-12,-56,-23,20,81,8
1461663701412810,20,5,-15,78,56,9,-41,-4
1461663701412810,-22,-31,66,-8,-6,-3,13,18
1461663701425833,83,-9,-25,40,34,42,99,51
1461663701425833,-33,0,-4,66,25,-29,-69,-55
1461663701433838,83,4,11,-13,-37,-27,-89,-29
1461663701433838,25,-29,7,-22,-30,-34,-36,-24
1461663701448834,21,3,31,-103,-53,-42,54,62
1461663701448834,6,8,-47,73,28,30,47,57
1461663701456900,-41,10,23,-23,-26,6,26,-17
1461663701456900,24,-15,-22,-33,-5,39,80,-21
1461663701471866,-128,13,39,9,0,-27,-93,-28
1461663701471866,-16,5,-22,-24,-20,-26,-68,-2
1461663701472851,53,20,-20,26,23,0,-24,-19
1461663701472851,15,-17,-20,-106,-70,3,12,9
1461663701485868,-56,16,81,70,112,69,73,20
1461663701485868,-17,1,2,-2,20,-13,22,13
1461663701493868,15,7,-31,-52,-42,-7,48,19
1461663701493868,32,-11,-9,-44,-31,-11,-60,-15
1461663701508877,-22,10,-45,28,-8,-3,-16,-43
1461663701508877,116,3,49,52,32,43,41,63
1461663701515881,-67,10,-19,-40,-16,-43,-47,-36
1461663701515881,-47,-5,-25,57,19,-14,17,23
1461663701531893,-62,25,-14,-37,-47,-38,-128,-45
1461663701531893,-38,4,-41,12,-8,-15,31,6
1461663701532893,-29,4,-1,43,18,62,69,-34
1461663701532893,-5,-9,-6,13,24,-26,-71,-35
1461663701545914,60,7,44,9,-6,-8,45,33
1461663701545914,2,9,-24,-4,27,23,-5,-26
1461663701553920,-46,-4,-6,-59,-52,7,-4,1
1461663701553920,-59,-4,-21,32,17,-5,33,-23
1461663701568930,88,10,47,114,46,21,-3,56
1461663701568930,-16,6,56,-21,9,-4,-44,-41
1461663701575938,4,-5,-31,8,6,-32,-44,-12
1461663701575938,5,-10,-18,-14,-26,3,35,9
1461663701591934,-53,24,-42,-89,-1,21,35,19
1461663701591934,-5,4,32,83,30,23,19,-4
1461663701592935,17,12,9,-23,-8,-3,-10,7
1461663701592935,15,-3,-4,0,-9,-23,-29,-13
1461663701607949,-84,5,-38,-8,-28,-52,-32,3
1461663701607949,-47,8,4,-38,-24,1,-49,-18
1461663701614009,4,-4,41,-29,-8,2,17,9
1461663701614009,50,1,-64,-2,-6,39,57,27
1461663701629064,-16,8,-2,27,5,-17,2,-27
1461663701629064,-28,-4,-29,-128,-68,-18,2,-5
1461663701636116,67,1,34,82,79,23,26,20
1461663701636116,23,-2,1,-15,13,5,2,17
1461663701652129,-68,8,59,63,61,8,-16,-10
1461663701652129,-16,4,-9,12,5,32,127,33
1461663701653092,45,-4,-1,-128,-52,-10,-47,-20
1461663701653092,3,-4,-2,42,50,7,-65,45
1461663701666178,-59,7,8,-6,26,-23,-41,-37
1461663701666178,26,8,77,-26,1,-5,-7,-19
1461663701674211,-90,1,-41,-65,-13,43,51,11
1461663701674211,-54,-3,-47,-24,-48,-45,-74,-42
1461663701689212,52,13,-33,-52,-58,-43,-47,-3
1461663701689212,-24,8,9,99,31,14,-6,19
1461663701696214,-54,-1,-18,-39,-34,-22,27,-18
1461663701696214,-2,-7,24,8,18,41,60,7
1461663701712225,79,4,4,-46,-28,0,15,13
1461663701712225,-6,8,-68,18,43,13,-6,9
1461663701712225,127,-6,44,44,2,12,1,-3
1461663701712225,5,-2,-33,-59,-27,-11,-13,-22
1461663701726227,35,4,38,34,6,13,18,-4
1461663701726227,76,16,47,46,64,-1,27,58
1461663701733231,-46,5,-31,-31,21,14,15,38
1461663701733231,11,-6,9,20,14,-15,-46,-61
1461663701757251,-71,12,-63,-52,-43,-18,2,4
1461663701757251,-37,1,-44,-63,-69,-32,-43,-35
1461663701757251,60,11,23,24,26,13,-11,1
1461663701757251,34,-3,24,-1,-13,-54,-24,13
1461663701772283,-87,11,-65,-48,-43,-13,-38,-34
1461663701772283,-6,5,6,-1,-45,-15,33,3
1461663701772283,48,2,36,8,12,8,15,-18
1461663701772283,15,-3,-29,-56,-20,23,19,-4
1461663701786315,97,6,20,88,88,36,11,18
1461663701786315,-23,13,45,79,39,-7,8,-2
1461663701802332,-34,-7,-20,-54,-22,-3,8,4
1461663701802332,13,3,4,-63,-32,5,-6,4
1461663701808287,-57,15,8,-9,24,38,88,12
1461663701808287,29,9,-6,-55,-11,8,2,-16
1461663701816336,34,-3,-2,11,-25,-45,-43,31
1461663701816336,-128,3,15,79,39,-12,-66,-37
1461663701832297,23,7,-11,-14,-22,-4,52,45
1461663701832297,27,2,3,-28,-18,38,24,-13
1461663701833342,-73,15,-36,-13,-39,-26,3,-15
1461663701833342,38,1,22,32,16,1,8,2
1461663701846298,31,-19,-4,-27,-6,6,-43,-31
1461663701846298,-29,18,-5,39,67,14,3,13
1461663701862333,63,6,-3,-37,-14,-7,9,13
1461663701862333,-16,4,27,93,33,22,28,11
1461663701868373,-37,35,13,36,5,-1,-11,-20
1461663701868373,4,30,-26,-33,-25,-18,-26,3
1461663701876320,-21,23,-21,-33,-26,-8,-5,-10
1461663701876320,25,8,-39,-26,5,0,9,-6
1461663701891345,-65,17,34,28,-1,-3,-16,-3
1461663701891345,-39,28,4,-15,-18,-22,11,42
1461663701892342,15,14,0,8,9,7,38,-15
1461663701892342,20,2,14,-7,4,59,-12,0
1461663701906371,13,19,-22,0,-5,-45,-105,-13
1461663701906371,-9,17,2,-31,-26,7,20,26
1461663701913409,-20,4,14,11,0,-10,-43,-33
1461663701913409,7,2,11,-1,11,-18,18,-14
1461663701928387,-29,21,-39,-12,-3,33,21,-1
1461663701928387,-29,12,17,-33,-35,-9,0,-10
1461663701936392,25,-16,-16,-12,33,13,24,13
1461663701936392,10,0,36,76,63,8,13,13
1461663701951402,-3,-11,-7,-58,-21,-8,-5,-1
1461663701951402,-8,-41,-4,22,9,-10,-18,-11
1461663701959380,16,-60,7,24,-11,0,-6,-5
1461663701959380,22,-8,-7,-49,-29,-11,-18,7
1461663701966401,-42,-109,-11,20,13,-5,10,-1
1461663701966401,-1,20,5,-15,-5,-4,-9,-13
1461663701973406,41,-4,-34,-13,-16,13,62,43
1461663701973406,-43,127,3,-1,-5,-29,1,2
1461663701988415,-4,98,2,-10,-16,-16,-65,-15
1461663701988415,-4,-25,17,5,19,-8,56,9
1461663701996445,-35,26,-3,19,-2,73,-41,-33
1461663701996445,8,127,-7,-15,-24,-20,-4,26
1461663702011455,12,51,-1,-14,-11,-7,32,18
1461663702011455,3,-53,-8,-31,-9,-5,-19,-22
1461663702019461,-10,-29,0,-8,9,-24,6,3
1461663702019461,-8,36,6,-3,-29,1,16,1
1461663702026444,-5,3,-3,50,49,18,7,1
1461663702026444,8,-57,11,6,5,-2,-23,-10
1461663702033471,-7,-21,1,4,9,-16,-4,-4
1461663702033471,-10,64,-13,-23,-23,1,-15,-4
1461663702048454,5,38,-1,-23,-27,-14,6,0
1461663702048454,26,19,-5,-15,-5,14,-6,-4
1461663702056507,-20,16,3,9,11,-6,-20,-9
1461663702056507,-8,112,-5,-5,7,-7,-5,2
1461663702071517,53,80,-1,-5,-10,-2,22,17
1461663702071517,3,-112,-5,-4,0,-28,-23,0
1461663702079567,-15,-18,3,-1,-10,32,20,14
1461663702079567,-95,-87,-5,-3,-3,-1,-16,-15
1461663702086628,4,-54,-6,-10,-10,-11,-1,-9
1461663702086628,65,-43,-1,-1,2,19,-22,-8
1461663702093577,36,-67,3,-13,-20,-46,-13,1
1461663702093577,-20,-57,14,66,45,14,14,14
1461663702108634,-13,-33,-14,-36,-2,4,8,8
1461663702108634,32,-46,18,22,7,-3,-2,-8
1461663702116648,11,-23,15,24,14,-2,-1,0
1461663702116648,-43,11,-18,-62,-37,3,11,1
1461663702131621,-24,21,15,40,31,7,-1,-2
1461663702131621,39,8,15,4,6,7,1,0
1461663702139627,7,10,-5,2,-2,4,-9,-10
1461663702139627,-50,-20,-29,-28,-19,-19,-14,-7
1461663702155638,-9,-13,7,-6,-18,7,18,4
1461663702155638,40,-44,-27,-9,-8,13,-8,-16
1461663702155638,4,-12,26,10,5,-32,-30,-4
1461663702155638,-38,10,-3,-6,-4,16,8,3
1461663702168647,-1,1,0,-6,0,12,13,2
1461663702168647,29,-27,-20,0,1,8,2,0
1461663702176639,-5,64,-4,1,2,-14,-14,-6
1461663702176639,-27,86,13,3,0,-4,-2,4
1461663702191637,-6,52,-14,-17,-10,-10,0,0
1461663702191637,19,55,2,1,-3,6,2,-7
1461663702199679,0,-72,-3,6,1,-8,-8,-6
1461663702199679,-12,-38,8,-4,-1,0,2,11
1461663702214690,-3,-5,9,1,2,0,-1,-2
1461663702214690,15,-23,-6,-1,-3,-6,-4,-6
1461663702214690,5,-57,-7,0,-2,7,4,-1
1461663702214690,-11,-10,15,1,3,0,7,5
1461663702228675,-6,-67,-19,-12,-6,-1,-4,-5
1461663702228675,19,-8,-11,-10,-9,-7,-3,-3
1461663702236695,0,11,37,7,2,2,5,1
1461663702236695,-24,-30,-33,9,6,1,1,-1
1461663702251706,2,4,10,-9,-1,-8,-3,-3
1461663702251706,16,32,13,-15,-5,1,3,3
1461663702259711,5,21,12,41,28,13,9,4
1461663702259711,-16,10,15,5,3,-6,-3,0
1461663702274696,2,3,-6,2,-2,3,-2,1
1461663702274696,15,28,-5,-3,-1,-1,1,-2
1461663702274696,-7,-3,-7,-13,-11,-3,-4,-5
1461663702274696,-11,2,-1,-11,-5,-7,-2,3
1461663702288707,1,-9,-17,2,1,6,-3,1
1461663702288707,12,8,14,4,2,-9,-3,0
1461663702295708,-1,-18,-21,-13,-11,-22,-11,-6
1461663702295708,-10,-11,1,-3,-1,12,4,-1
1461663702310868,0,-9,10,-4,-1,15,7,3
1461663702310868,10,6,3,10,3,0,-1,0
1461663702319879,-1,-6,-5,-7,-4,5,1,-3
1461663702319879,-10,5,-10,-10,-2,-15,-5,-3
1461663702334843,2,4,-4,4,-2,-3,-6,1
1461663702334843,10,18,-2,0,-2,1,1,2
1461663702334843,-5,15,-6,-12,-8,-3,-3,-3
1461663702334843,-11,-10,-3,-3,-6,2,-1,-2
1461663702348848,0,1,0,10,4,-5,-5,-3
1461663702348848,7,2,2,-10,2,-1,1,0
1461663702355841,-4,0,5,8,2,-1,-1,-2
1461663702355841,-2,-11,-6,3,-2,-1,-1,0
1461663702370909,-2,-1,1,5,2,-5,-3,-1
1461663702370909,1,3,-8,0,0,-1,-2,-2
1461663702378869,-3,4,5,-9,-2,3,0,-2
1461663702378869,-4,-4,-1,-5,-1,-2,0,1
1461663702393868,2,-2,-8,-4,-6,-4,-4,0
1461663702393868,4,2,3,1,-1,2,0,0
1461663702394869,-5,-5,-10,-3,-2,4,1,-2
1461663702394869,-3,2,4,-1,-1,-2,-2,1
1461663702409894,2,1,1,-5,-4,-4,-1,1
1461663702409894,2,3,6,6,3,1,-1,0
1461663702415942,-4,-12,-16,-4,-2,-2,0,-1
1461663702415942,-4,-5,1,-7,-1,-6,-3,-2
1461663702430895,4,0,6,0,-2,-2,-1,2
1461663702430895,0,-10,-20,0,-1,-1,-1,-1
1461663702438959,-5,4,5,-4,-1,-1,-3,-4
1461663702438959,-6,-3,3,3,1,1,0,-1
1461663702453941,3,-6,-2,-6,-1,-2,0,1
1461663702453941,-2,-2,-9,-2,-4,-3,-3,-3
1461663702454943,-1,1,-15,-10,-2,1,1,-3
1461663702454943,-5,3,21,-3,-5,-5,-1,-4
1461663702468950,3,0,-6,13,9,0,1,3
1461663702468950,3,3,0,2,0,1,1,1
1461663702475944,-5,1,2,4,0,2,-3,-3
1461663702475944,-1,1,-4,-15,-8,-1,-2,-1
1461663702499961,0,1,1,-19,-17,-7,-2,-3
1461663702499961,8,5,7,24,15,7,4,2
1461663702500957,-4,-8,0,0,0,-3,0,-3
1461663702500957,-2,2,-7,-3,0,-3,-1,-2
1461663702513965,-6,-15,-4,-4,-5,-3,-1,1
1461663702513965,-2,-3,-2,-4,-3,-1,-2,1
1461663702514966,-1,-1,0,1,-2,-3,-2,-2
1461663702514966,1,-2,3,4,2,0,-1,0
1461663702528965,0,-4,-5,4,2,2,-1,0
1461663702528965,0,4,-1,-6,-3,-2,-1,-2
1461663702535986,-4,-3,-3,-1,-1,-1,-1,-2
1461663702535986,-2,-4,-7,3,0,-1,-3,-1
1461663702550991,3,7,3,-4,3,1,1,3
1461663702550991,-2,-4,-9,-18,-9,-2,-2,-1
1461663702559000,0,1,14,37,16,2,0,-2
1461663702559000,-4,-9,-5,-3,1,1,0,-2
1461663702574009,0,5,-3,-12,-7,-2,0,1
1461663702574009,0,2,16,17,11,3,2,1
1461663702590065,-1,-9,-12,-16,-6,1,0,-2
1461663702590065,-1,-4,-4,1,-1,-1,0,-2
1461663702592021,1,2,4,2,0,-2,0,0
1461663702592021,0,-10,-3,-9,-9,-3,-1,-2
1461663702596023,-1,5,5,-5,-4,-3,-1,-4
1461663702596023,1,-2,2,7,3,-1,0,2
1461663702611080,2,3,-11,-10,-3,-2,-1,2
1461663702611080,-7,0,-2,5,1,0,-1,-3
1461663702619085,-5,3,3,3,-2,-1,-1,-4
1461663702619085,0,2,0,-5,-2,0,-1,0
1461663702634038,2,-5,0,7,2,0,1,-1
1461663702634038,1,0,-7,-5,-1,-3,-1,0
1461663702635039,-4,-5,-5,-8,-7,-1,-4,-5
1461663702635039,-3,-3,-2,0,-1,0,-2,0
1461663702649067,-2,-2,0,1,-1,0,-1,-2
1461663702649067,1,0,7,7,0,-1,1,0
1461663702656087,-4,-9,-15,-15,-7,-2,-2,-5
1461663702656087,2,1,3,2,0,0,2,0
1461663702671068,0,0,4,4,2,-1,0,-1
1461663702671068,2,0,-4,-11,-3,-3,-1,-1
1461663702679070,-5,-6,-5,-1,-5,-2,0,-2
1461663702679070,-3,-9,-5,1,-1,-1,-2,-1
1461663702694081,3,7,3,2,2,-1,-1,-1
1461663702694081,-6,-7,-2,-4,-4,-2,-1,-2
1461663702695083,0,0,-2,-7,0,-1,-2,-1
1461663702695083,1,5,-2,1,0,-2,-1,1
1461663702709091,1,-9,-2,-2,0,-1,0,1
1461663702709091,-1,1,-8,-12,-1,-2,-2,-3
1461663702716095,0,-4,0,7,2,0,0,-1
1461663702716095,0,8,7,5,0,1,-1,2
1461663702731122,-1,0,5,6,2,-2,0,1
1461663702731122,-2,0,-6,-6,-3,-1,-1,-3
1461663702739127,0,-5,-9,-8,-5,-1,1,-1
1461663702739127,2,-3,-4,-5,-2,-3,-1,0
1461663702754123,0,2,-1,1,0,-1,-2,0
1461663702754123,-5,-5,2,4,1,1,-1,-2
1461663702755139,-2,2,-1,-5,-3,-2,-4,-2
1461663702755139,-1,-3,-2,-1,0,-1,0,1
1461663702777138,0,-1,3,-1,-1,-1,0,0
1461663702777138,-1,-2,0,4,2,2,-2,-1
1461663702777138,-6,-7,-2,0,-1,0,-1,-3
1461663702777138,0,-2,-2,-4,-3,0,-2,0
1461663702791149,-1,-3,0,0,-1,-1,-1,0
1461663702791149,-2,3,1,4,2,-2,0,0
1461663702807174,-2,1,0,-4,-2,-1,-2,-3
1461663702807174,0,-1,0,1,1,-2,-1,-1
1461663702814314,-2,0,3,3,1,0,0,0
1461663702814314,4,6,-2,1,3,1,0,1
1461663702815258,-3,-9,-2,-1,-2,-2,-2,-3
1461663702815258,-2,-4,-3,-11,-4,-2,-2,-1
1461663702828277,-4,-2,2,-3,-4,-1,-3,0
1461663702828277,1,0,0,9,3,1,1,1
1461663702836330,0,7,-2,-8,-3,-2,-2,-1
1461663702836330,3,4,2,3,-1,1,1,-1
1461663702851340,1,-3,-3,-6,-3,-2,-1,1
1461663702851340,-1,-5,-2,-6,-2,-1,-1,-1
1461663702867359,-1,1,-4,3,1,-2,-1,-3
1461663702867359,1,-3,2,-3,-2,-1,-1,1
1461663702873355,1,8,-2,2,0,1,-2,0
1461663702873355,-3,-5,-3,-1,-1,1,0,-2
1461663702882318,-1,-3,-1,-2,-4,-1,-2,-2
1461663702882318,1,4,2,3,0,-2,-1,-1
1461663702888366,-1,-3,1,-2,3,1,-1,-1
1461663702888366,-2,-3,-1,-2,-5,-1,-1,-1
1461663702896325,-1,2,1,2,-1,-2,-1,-2
1461663702896325,-3,-4,-3,0,1,0,0,1
1461663702911383,-2,-6,0,6,2,1,2,2
1461663702911383,-2,0,0,-3,-1,0,-1,-2
1461663702919388,-3,-2,1,-3,-4,-1,-2,-2
1461663702919388,-3,-3,-3,-3,-1,-3,-1,0
1461663702933342,0,3,0,-2,-2,-1,0,-1
1461663702933342,0,4,3,1,-1,-3,-1,-3
1461663702942345,-3,-4,-4,-3,-2,-1,-2,-2
1461663702942345,0,-2,0,2,-1,-1,-1,0
1461663702948409,1,-2,-2,-2,-1,0,2,0
1461663702948409,-5,-3,1,-1,-1,-2,-1,-2
1461663702956414,-1,-6,-5,-1,-2,-2,0,-4
1461663702956414,-1,-2,-1,1,1,0,0,0
1461663702971385,2,2,1,2,0,-1,-1,1
1461663702971385,2,11,0,-9,-4,-2,0,1
1461663702979384,0,0,3,10,5,-1,0,0
1461663702979384,-1,-3,-1,3,0,-2,-1,0
1461663702993399,4,3,-2,-5,-4,-2,-2,-1
1461663702993399,-7,-10,1,5,1,1,-1,-3
1461663703002408,-1,-1,-2,-7,-5,-1,-1,-4
1461663703002408,0,-4,-2,-3,-1,0,-2,2
1461663703008404,-3,-5,-3,-2,-1,0,0,3
1461663703008404,0,-6,-4,-4,-2,-2,-1,-1
1461663703016457,-3,7,1,-1,-1,-2,-3,-2
1461663703016457,0,-3,-1,-2,-3,-2,-1,1
1461663703031408,0,-1,-1,2,2,0,0,-1
1461663703031408,0,2,0,0,0,0,1,0
1461663703039434,-5,-5,-1,-2,-2,-3,-2,-3
1461663703039434,5,5,-4,-3,0,-2,0,0
1461663703053483,-6,-13,-3,-2,-2,0,0,-1
1461663703053483,-3,-3,0,0,1,-2,-1,-1
1461663703062449,-1,-2,-4,-3,-2,0,-3,-3
1461663703062449,2,0,-2,-4,-2,0,-1,1
1461663703076452,2,2,0,-1,-1,-1,-2,-1
1461663703076452,-6,-4,0,3,1,-1,1,-2
1461663703077440,-3,-1,-3,-6,-3,-2,-2,-2
1461663703077440,0,4,2,1,0,-1,0,0
1461663703091465,0,-4,-2,-2,-1,-2,1,-3
1461663703091465,2,0,-3,-3,-3,-1,-2,-1
1461663703099472,-4,-2,-1,-2,-2,0,-3,-4
1461663703099472,-1,-2,0,1,-1,0,2,0
1461663703113529,1,4,1,-5,-2,0,-1,0
1461663703113529,-1,-2,-2,0,0,-2,-2,-3
1461663703121532,-3,-5,2,1,2,-2,-2,-3
1461663703121532,2,-5,-2,-3,0,-2,-2,2
1461663703136543,-1,3,3,8,2,-1,-1,2
1461663703136543,1,3,-3,-4,-2,0,0,-1
1461663703137504,4,1,-7,-12,-6,-1,-1,1
1461663703137504,2,7,6,4,-2,-1,-1,-1
1461663703151551,-2,-2,0,7,2,0,-1,0
1461663703151551,0,0,1,2,-1,-1,0,-1
1461663703159557,-6,-5,2,3,1,0,0,-2
1461663703159557,1,2,-6,-8,-2,-3,0,1
1461663703173567,1,-3,-5,-5,-3,-1,-1,0
1461663703173567,0,-3,-1,3,1,1,-2,-3
1461663703181514,2,0,-2,-7,-4,-1,-1,-1
1461663703181514,-1,0,0,6,0,-1,0,1
1461663703196554,-2,4,1,1,0,-1,-1,-2
1461663703196554,1,2,1,0,-1,-3,-1,-2
1461663703197527,-2,0,-3,-3,-2,-4,-1,-2
1461663703197527,-3,-7,-1,-2,0,0,-1,1
1461663703211565,-1,-7,-1,2,0,0,1,0
1461663703211565,-2,6,-2,-11,-8,-3,-1,-1
1461663703218571,-3,3,4,20,7,2,0,-2
1461663703218571,-1,-5,-2,-1,1,0,-3,0
1461663703233551,3,0,-2,-3,1,0,-1,-1
1461663703233551,0,-1,0,-1,0,-2,-1,-2
1461663703241560,-1,-2,-2,-6,-4,-3,-2,-3
1461663703241560,-2,0,-3,-4,-4,-2,0,1
1461663703256606,-1,-3,-3,-2,0,-1,0,-1
1461663703256606,-6,-1,-1,0,-1,0,-1,-2
1461663703257570,0,-2,-2,-3,-2,-2,-4,0
1461663703257570,2,7,1,1,3,0,-2,1
1461663703271617,-2,0,-2,-6,-2,-3,-1,0
1461663703271617,1,-4,-1,2,2,0,1,-1
1461663703278595,0,3,1,-1,-2,0,-1,-2
1461663703278595,1,-6,-2,-2,-1,0,-1,2
1461663703293624,-4,-2,-2,-2,-3,-1,-1,0
1461663703293624,-5,-2,-2,0,0,-1,-2,-2
1461663703301629,-2,-4,-3,0,-2,-2,-1,-3
1461663703301629,1,-2,0,-1,0,1,0,1
1461663703316626,0,3,1,1,0,-1,0,-1
1461663703316626,-1,0,0,-2,2,-1,-1,-1
1461663703317627,0,-2,-1,-1,-2,-2,-1,-2
1461663703317627,0,-2,-1,0,-2,0,-1,1
1461663703331636,-1,-2,0,-1,1,1,0,0
1461663703331636,-6,-2,-1,-2,-2,-1,-1,-3
1461663703338642,5,11,-1,-5,-2,-3,-1,-2
1461663703338642,0,0,-2,-2,-1,-2,-1,1
1461663703353676,-1,-1,2,1,1,-1,0,0
1461663703353676,0,1,0,0,0,-1,1,-2
1461663703361681,-11,-18,-2,0,-1,0,-1,-3
1461663703361681,-2,-4,-1,1,1,-1,0,-1
1461663703376652,-2,4,-1,-2,-2,0,-1,-1
1461663703376652,-4,-8,-2,0,-2,1,-2,-2
1461663703377653,1,2,-2,-3,-1,-2,-2,0
1461663703377653,3,2,1,0,-1,0,-3,1
1461663703391663,-4,0,0,0,-1,1,1,-1
1461663703391663,-2,-1,0,2,-1,-1,0,-2
1461663703398670,0,-1,-2,-2,-1,0,-3,-1
1461663703398670,1,3,-1,-1,-2,0,0,2
1461663703413703,0,-1,-1,0,0,0,-1,1
1461663703413703,0,2,-2,-2,-3,0,0,-1
1461663703421756,-2,-10,-5,-4,-2,-3,0,-1
1461663703421756,-1,-1,1,0,0,-1,0,0
1461663703436719,-4,-1,0,-1,-2,-3,-3,-1
1461663703436719,-1,1,1,3,3,0,-1,-1
1461663703437697,4,1,1,-1,-2,-1,-1,-1
1461663703437697,-9,-11,-2,0,2,1,-1,-1
1461663703451707,-2,-4,-3,-3,-2,-1,-1,-1
1461663703451707,-3,-5,-3,-3,-3,-1,-2,-2
1461663703458717,-5,-1,-2,-2,-3,-2,-1,-2
1461663703458717,5,8,0,-1,-1,0,-1,1
1461663703473725,-1,-3,-2,0,1,-1,-1,1
1461663703473725,-2,1,-1,-2,-1,-2,-2,-2
1461663703481730,-1,-3,-3,0,-3,-1,-2,-1
1461663703481730,1,-3,2,-2,-1,-2,-1,1
1461663703504754,1,1,2,0,0,-1,0,0
1461663703504754,1,9,-3,-5,-1,-2,-1,-2
1461663703505744,-4,-3,-2,-2,-1,-1,0,-2
1461663703505744,-1,-3,-2,1,-1,-1,0,0
1461663703510764,5,7,2,-1,-1,-1,1,0
1461663703510764,-3,-8,-2,-1,-1,0,-1,-3
1461663703518765,-4,-3,-2,-4,-3,-1,-2,-2
1461663703518765,-2,0,1,-2,-1,-2,-1,0
1461663703533776,0,0,0,2,3,0,-1,-1
1461663703533776,3,2,-1,-1,-3,-2,0,-1
1461663703541770,-5,-12,-2,-2,-1,-1,0,-1
1461663703541770,1,-1,-3,-2,-2,-1,-1,0
1461663703556818,-2,7,0,1,0,0,0,-1
1461663703556818,-2,-3,-3,-3,-1,0,-1,-3
1461663703557782,3,4,-3,1,2,-1,-1,-1
1461663703557782,2,-1,1,-1,-1,-1,-2,0
1461663703570830,-2,-5,1,-1,-1,-1,-1,1
1461663703570830,-2,0,-3,-4,-4,-1,-3,-4
1461663703578807,2,0,-2,-1,-2,-2,-2,1
1461663703578807,3,0,1,1,-1,0,2,2
1461663703593825,-3,-8,-5,-5,-3,-2,1,-2
1461663703593825,-4,3,-2,1,0,0,-2,-5
1461663703601831,0,-2,-1,0,0,-2,-1,-1
1461663703601831,0,1,-2,-2,-2,-1,-2,-1
1461663703617823,0,-1,0,-2,-1,1,-3,-1
1461663703617823,1,-5,-4,-1,-3,-1,-1,-1
1461663703617823,-5,-4,-3,-2,-3,-1,-1,-2
1461663703617823,1,1,-1,0,0,-2,0,1
1461663703630844,3,2,0,-1,-1,-2,0,-1
1461663703630844,-8,-7,0,1,1,-3,-1,-5
1461663703638877,2,3,1,-3,-1,0,-1,3
1461663703638877,-2,-8,-1,0,0,2,-1,0
1461663703653888,-3,2,0,0,0,2,0,0
1461663703653888,1,6,1,0,-1,-2,-1,-3
1461663703661893,2,5,-2,0,-3,-1,-1,-1
1461663703661893,1,1,0,-1,-1,2,-2,1
1461663703676866,-1,-5,0,3,1,-1,0,-2
1461663703676866,-4,-7,-3,-1,0,0,-1,-4
1461663703677878,1,-2,0,-1,-1,-1,-1,0
1461663703677878,1,-1,-2,-1,-2,-2,0,3
1461663703699907,-3,-5,-2,0,0,0,-1,0
1461663703699907,1,-5,-3,-2,-1,0,-1,-3
1461663703699907,1,4,1,-3,-2,-1,-2,-2
1461663703699907,3,4,0,-3,-1,-1,-2,0
1461663703713954,-3,-5,-3,-5,-2,-1,-1,0
1461663703713954,-3,7,4,0,-2,-2,-1,-4
1461663703721959,-3,-10,-5,-2,0,-1,-2,-1
1461663703721959,0,9,0,1,0,-2,3,2
1461663703736908,5,4,-1,-2,0,1,-1,1
1461663703736908,-11,-4,-1,0,-1,-1,-3,-4
1461663703737909,-7,-6,-1,1,-2,1,-2,-2
1461663703737909,-1,-3,-1,0,-1,-3,0,0
1461663703750947,1,-1,-2,-2,-3,-2,1,1
1461663703750947,5,2,0,-1,-1,-1,1,0
1461663703758954,-1,2,0,-3,-2,-2,-4,-2
1461663703758954,-3,-5,-3,-1,-1,0,-2,1
1461663703782942,1,5,2,1,-1,-1,0,-1
1461663703782942,-2,-15,-3,0,-1,-1,-2,-1
1461663703782942,-3,2,-4,-2,-3,-3,-2,-2
1461663703782942,6,4,0,2,0,0,-1,1
1461663703796988,-1,1,0,2,1,1,-1,-2
1461663703796988,-1,4,-1,-4,-2,-1,-1,-3
1461663703797964,2,-5,-2,-2,-2,-2,-1,-1
1461663703797964,2,0,-4,-3,-2,-4,-2,0
1461663703810999,-7,-13,-4,-3,-3,0,-2,-4
1461663703810999,-3,0,-1,-1,-2,-1,-1,-1
1461663703819023,2,-5,-2,0,-1,-2,-2,-1
1461663703819023,0,3,2,-1,0,0,0,1
1461663703833976,3,3,1,-4,-3,1,0,2
1461663703833976,-1,-5,-2,-1,-2,-1,-3,-4
1461663703841983,-1,-1,-2,-2,-1,0,-1,-2
1461663703841983,0,6,3,9,5,1,-1,-1
1461663703856000,0,8,4,1,0,-1,-1,-1
1461663703856000,-10,-9,-5,-5,0,0,0,-4
1461663703864027,-3,-8,-2,-4,-3,-2,-1,-3
1461663703864027,6,8,-2,-3,-1,-1,1,1
1461663703871008,-2,-9,-2,1,-3,-2,-2,-2
1461663703871008,3,14,0,-2,-3,-2,-3,0
1461663703879009,4,-4,-6,-3,-2,-2,-1,-1
1461663703879009,-9,-4,-1,-6,-3,1,0,-1
1461663703895025,0,3,-1,-2,-1,-3,-2,-1
1461663703895025,-3,2,-3,-17,-12,-3,-1,-5
1461663703902029,-1,-3,4,5,6,1,0,2
1461663703902029,0,-5,-1,7,7,3,3,3
1461663703916063,-3,2,0,1,2,0,0,-1
1461663703916063,2,0,1,-3,-2,-1,-3,-4
1461663703924070,-3,3,-3,-9,-8,-4,-5,-1
1461663703924070,0,-6,-3,-16,-7,0,3,1
1461663703931073,-9,-8,0,14,2,-1,9,-1
1461663703931073,-5,0,0,7,1,-1,-15,-4
1461663703939080,-3,0,-1,7,2,-1,-4,-2
1461663703939080,9,4,3,7,2,-3,-11,2
1461663703954076,-2,-2,-9,-21,-8,-2,1,-3
1461663703954076,-6,-4,-6,-3,-5,-6,-6,-6
1461663703962082,3,15,6,-2,-1,-3,17,4
1461663703962082,-2,-6,6,0,-4,3,-7,0
1461663703976076,5,13,-2,-14,0,2,-2,-2
1461663703976076,-20,-37,-17,-2,2,5,-5,-9
1461663703984082,4,5,9,5,-4,-8,-9,1
1461663703984082,-12,-14,-18,-7,-4,-2,7,-2
1461663703991087,0,2,0,19,2,-3,14,2
1461663703991087,5,11,-2,-22,-12,-4,-7,-2
1461663704007157,2,4,4,24,3,4,3,-3
1461663704007157,11,15,21,1,6,2,-3,8
1461663704014210,1,-6,-10,-4,9,8,1,7
1461663704014210,-1,-16,-6,-34,-24,-14,-2,-8
1461663704022258,-11,1,-25,-37,1,-14,-20,-6
1461663704022258,5,12,35,82,23,2,9,0
1461663704036267,-15,6,6,-7,-13,-1,-7,-9
1461663704036267,4,-1,-2,16,12,5,9,8
1461663704044227,1,-36,-7,-23,-4,4,-9,-6
1461663704044227,-3,-17,1,14,1,2,12,3
1461663704059284,2,9,-11,-14,-9,-6,-18,4
1461663704059284,12,10,3,9,-4,2,27,3
1461663704060227,5,77,24,28,11,5,7,2
1461663704060227,-19,-33,-33,-47,-8,4,9,-10
1461663704082244,3,-5,22,19,-7,8,32,3
1461663704082244,3,-2,8,2,4,1,-33,9
1461663704083244,-4,19,-15,-13,-12,-21,-34,-14
1461663704083244,2,-8,-2,-20,-3,-12,-42,-7
1461663704096252,-6,1,-1,3,9,6,13,-3
1461663704096252,28,-9,-36,12,-1,-1,32,12
1461663704104257,-21,12,5,-2,-2,1,-7,-10
1461663704104257,-12,-24,9,8,4,1,22,4
1461663704119287,-2,-2,-11,-32,-15,12,-16,-6
1461663704119287,19,15,15,60,41,9,-18,-2
1461663704120271,18,-16,22,7,-18,-17,-15,22
1461663704120271,-19,7,-71,-51,-32,-20,-16,-7
1461663704142303,0,10,29,36,34,12,64,9
1461663704142303,-13,21,13,0,2,10,3,-12
1461663704143284,22,-37,-35,-63,-20,4,10,3
1461663704143284,-31,47,56,70,34,19,-5,1
1461663704156358,-11,-31,-2,0,-5,-13,-12,-9
1461663704156358,16,-9,17,15,19,1,-17,-19
1461663704164363,19,-35,4,-21,-3,28,14,28
1461663704164363,15,5,-18,-61,-27,-17,1,-11
1461663704179339,-73,75,-28,67,19,-32,-41,-18
1461663704179339,-7,77,-29,-56,-12,-5,3,2
1461663704180319,13,-44,28,23,-9,21,86,16
1461663704180319,34,-15,1,26,16,16,-45,-8
1461663704193350,1,-78,14,-45,-23,-14,48,-15
1461663704193350,13,-36,3,-27,-21,-35,-102,-17
1461663704202356,-29,2,-18,56,20,-22,-11,-9
1461663704202356,40,-69,-28,-40,-27,-3,13,34
1461663704216352,1,-20,-20,7,-6,-17,-44,-16
1461663704216352,-30,5,-9,-45,-32,11,77,5
1461663704224345,11,127,15,14,12,17,4,-10
1461663704224345,-17,127,-7,48,37,8,1,0
1461663704239368,1,5,50,-6,-14,-1,-24,10
1461663704239368,9,-69,-49,-34,8,30,95,-12
1461663704240369,1,-65,-15,-29,4,0,-58,-14
1461663704240369,11,-36,47,58,5,-42,3,12
1461663704253375,-3,-23,-32,-54,-12,17,28,3
1461663704253375,29,-35,74,66,23,17,-29,-1
1461663704262389,22,-39,-18,31,12,-23,-32,-3
1461663704262389,-45,-15,-4,-37,-28,-34,-21,0
1461663704276393,-13,20,-18,-80,-27,18,46,15
1461663704276393,4,-16,-20,4,21,45,59,30
1461663704284384,43,-21,26,42,3,-37,-41,5
1461663704284384,26,4,-28,-54,-31,-14,-74,-13
1461663704315477,-8,7,22,88,47,-16,-63,-34
1461663704315477,-41,-19,10,-4,-13,-3,46,-3
1461663704316435,-63,-17,-63,-43,0,34,48,-10
1461663704316435,12,8,86,37,-1,13,63,27
1461663704318409,-2,17,-46,-38,1,20,-8,-8
1461663704318409,64,-23,36,40,18,-37,-72,-5
1461663704321633,12,2,-49,-94,-67,-7,13,3
1461663704321633,-67,-3,60,71,81,11,11,2
1461663704336597,11,8,-6,19,9,18,25,41
1461663704336597,-43,-13,-10,-54,-43,6,85,16
1461663704344603,104,-1,-3,-3,-24,-22,-93,-4
1461663704344603,-97,4,-37,-81,-56,-55,-81,-70
1461663704359590,36,0,37,40,15,-4,-57,-7
1461663704359590,9,-17,-4,-24,4,-8,19,-19
1461663704360591,-17,-6,20,-25,-10,25,65,-5
1461663704360591,24,1,-20,36,22,56,79,52
1461663704373616,-40,11,18,-53,-34,-47,-59,-17
1461663704373616,28,-6,-11,72,30,-15,-44,-23
1461663704381623,-55,-1,14,-72,1,25,68,0
1461663704381623,45,7,2,22,-26,24,-6,40
1461663704396674,46,6,-47,10,28,-12,-47,15
1461663704396674,31,-16,-62,-128,-80,-39,-81,-38
1461663704404681,-14,-12,55,127,52,-30,-5,0
1461663704404681,-44,-9,31,-27,-29,-16,38,6
1461663704419691,20,30,2,75,44,48,127,50
1461663704419691,63,-39,-64,-11,21,27,21,-43
1461663704420633,53,-3,8,28,5,-17,-80,-46
1461663704420633,-68,24,-11,-33,-4,-18,-9,34
1461663704434659,-111,28,21,-21,-3,18,12,-8
1461663704434659,14,-31,3,-1,-4,-17,-12,-13
1461663704440800,37,-14,-2,56,14,8,27,18
1461663704440800,-17,19,-5,-102,-24,11,47,11
1461663704456764,-29,26,-36,-24,-8,-13,28,33
1461663704456764,27,-23,25,111,87,13,-52,-32
1461663704464813,-28,-15,19,-63,-30,-33,-70,-56
1461663704464813,-18,21,-45,-77,-38,11,17,32
1461663704479776,-50,25,2,-1,-9,39,76,21
1461663704479776,34,-41,20,39,10,-24,-88,-27
1461663704479776,5,-4,15,1,10,-40,-68,17
1461663704479776,-62,20,-13,-29,-20,2,34,-33
1461663704501784,10,14,1,28,52,44,21,11
1461663704501784,-3,-17,19,-122,-47,0,55,30
1461663704502785,20,-3,-27,-9,8,24,11,-8
1461663704502785,-50,13,-31,-54,1,26,83,49
1461663704515791,-26,3,-3,-10,-54,-54,-98,-60
1461663704515791,43,-11,7,55,-10,-36,-41,-53
1461663704524797,-45,8,-9,-1,22,0,-31,34
1461663704524797,-37,5,-42,-14,-2,7,-9,-17
1461663704539818,-45,1,1,-103,-79,-36,43,8
1461663704539818,10,-15,0,42,54,29,-12,-11
1461663704539818,13,0,11,-54,-34,9,50,-17
1461663704539818,35,8,8,-50,3,15,-27,3
1461663704553828,54,4,7,-87,-37,-13,54,41
1461663704553828,15,-6,41,10,-8,1,-19,-10
1461663704560835,-29,-13,-44,-32,-41,-36,-45,-19
1461663704560835,25,6,-13,-30,-35,11,23,34
1461663704575831,-73,2,-10,92,79,-18,-81,-66
1461663704575831,37,-10,2,-47,-21,-8,16,-1
1461663704584900,9,7,39,57,52,75,127,27
1461663704584900,-4,2,18,21,6,11,-80,-6
1461663704599848,57,-7,-15,-45,-37,-67,-77,31
1461663704599848,-50,-10,-25,-12,-36,-6,-9,-24
1461663704599848,35,9,-36,68,-9,0,42,22
1461663704599848,-1,11,14,-50,-4,12,19,28
1461663704613916,-81,3,-14,47,27,5,-16,-43
1461663704613916,14,-17,13,35,-18,-10,9,-1
1461663704629869,-17,9,-16,-2,13,24,51,-11
1461663704629869,-28,-4,36,71,17,-18,-63,-28
1461663704635893,116,1,38,-74,-64,8,-4,13
1461663704635893,-32,0,-59,-18,-12,-59,-27,22
1461663704644880,-42,-5,25,-9,2,4,50,48
1461663704644880,33,6,23,19,22,12,52,29
1461663704659905,13,-14,19,-4,-17,-14,-32,-55
1461663704659905,30,-9,-19,23,26,41,19,-13
1461663704659905,-83,10,-10,-53,16,9,-72,-11
1461663704659905,-57,1,-21,22,18,-26,-42,-18
1461663704673960,-6,-8,5,2,18,21,35,11
1461663704673960,5,-14,-12,-69,-59,-16,51,15
1461663704681918,61,3,12,22,-2,-35,-75,-7
1461663704681918,-34,1,-5,-8,2,5,20,-14
1461663704695916,18,7,9,-42,-2,14,60,-9
1461663704695916,4,-5,39,76,63,52,9,34
1461663704704939,2,15,-58,-128,-90,-79,-91,16
1461663704704939,3,-1,-16,82,33,-19,-8,-34
1461663704719950,81,-10,6,7,-10,26,-18,-14
1461663704719950,-23,1,36,-11,-9,9,36,-6
1461663704719950,-70,-8,2,51,44,40,46,21
1461663704719950,88,-1,-17,-21,-18,-16,36,2
1461663704734002,-67,-10,-13,-46,-31,9,-34,-24
1461663704734002,44,-6,-41,52,47,0,-38,39
1461663704740965,-3,5,43,-29,-15,-12,-7,-7
1461663704740965,-25,2,6,3,-13,20,21,-12
1461663704756018,-40,4,-13,9,36,-21,-83,-23
1461663704756018,12,-9,-19,-57,-46,-29,-35,-8
1461663704764982,16,-4,23,-3,-11,14,46,17
1461663704764982,5,4,-23,-35,8,5,4,-2
1461663704778988,67,-8,-20,60,14,26,50,9
1461663704778988,-59,-3,24,-66,-21,-14,-12,2
1461663704787040,-96,6,2,25,29,10,2,-15
1461663704787040,-11,0,-40,-32,-29,-25,-59,-18
1461663704793985,95,-2,16,-21,-1,-12,17,10
1461663704793985,20,-12,31,67,34,35,44,17
1461663704800991,-41,1,-49,-78,-61,-24,-31,5
1461663704800991,45,3,52,48,37,8,-22,9
1461663704816061,13,-7,-32,-40,-17,-11,-8,-14
1461663704816061,-128,3,-20,-94,-62,-16,-29,-17
1461663704825008,-28,5,12,90,67,64,64,7
1461663704825008,71,-4,-4,8,18,-10,-6,-19
1461663704839077,52,-3,31,21,13,21,33,71
1461663704839077,75,-3,-42,-92,-34,-43,-65,-34
1461663704847035,-53,-4,12,15,-7,-13,-1,-27
1461663704847035,-4,-11,7,22,13,19,15,31
1461663704854087,18,-4,-8,0,-17,-20,-3,-28
1461663704854087,26,-1,-1,-30,-14,2,-4,6
1461663704861048,-9,5,-15,-18,-2,-21,-74,-18
1461663704861048,-40,-1,12,33,1,6,46,-4
1461663704876073,-45,-2,-24,-38,-10,6,21,-17
1461663704876073,35,-11,46,63,10,14,29,31
1461663704884079,35,7,64,106,46,4,12,26
1461663704884079,-43,5,-34,-17,5,8,-1,-12
1461663704899089,-20,0,-12,-18,19,17,11,-13
1461663704899089,7,-4,27,51,15,-1,1,-15
1461663704907082,54,6,2,-55,-11,-23,-23,4
1461663704907082,-43,5,5,19,7,25,46,2
1461663704914088,71,-10,4,-1,-21,-9,-64,-34
1461663704914088,-128,13,12,-20,6,-30,-24,11
1461663704921092,-7,-4,-26,-18,-13,18,64,30
1461663704921092,-24,3,5,-9,-7,1,-86,2
1461663704936099,-43,-16,6,-16,-19,-28,-26,-41
1461663704936099,70,-3,7,12,-11,-9,19,-10
1461663704944112,-27,9,-20,-98,-23,5,-9,0
1461663704944112,-33,0,17,32,5,-4,-11,-4
1461663704959136,45,-12,18,105,84,40,40,27
1461663704959136,36,-9,20,69,36,9,-6,-6
1461663704967165,-43,2,7,-18,-20,-7,11,16
1461663704967165,-20,4,-30,-86,-48,-16,20,-47
1461663704982118,32,-13,38,4,53,28,13,75
1461663704982118,-7,0,-33,31,-7,-11,9,27
1461663704983121,74,-1,18,20,17,10,50,17
1461663704983121,-4,11,-9,-16,-10,14,-42,-37
1461663704998133,-12,-21,-17,-20,-63,-73,-54,-20
1461663704998133,29,-3,-5,-52,-4,-6,4,12
1461663705004134,-34,0,-8,5,11,10,44,-4
1461663705004134,80,-4,10,4,12,39,-20,20
1461663705027166,-117,-2,-7,-38,-38,-28,-52,-30
1461663705027166,-4,-10,-52,-57,-31,-14,-9,0
1461663705028168,44,4,49,71,25,-1,15,6
1461663705028168,-40,-1,-4,30,25,-4,21,-9
1461663705042177,-9,-12,-56,-91,-4,16,9,-5
1461663705042177,15,3,-17,-8,6,14,11,-12
1461663705043162,34,9,41,47,23,-4,-30,-1
1461663705043162,-10,2,-25,55,45,-6,11,3
1461663705056230,-19,-13,21,11,4,-5,7,-27
1461663705056230,-11,3,8,36,-2,15,30,47
1461663705064237,-39,3,-35,-37,-22,13,18,-28
1461663705064237,22,9,25,0,-8,16,-11,32
1461663705079202,-110,6,-36,9,-14,-20,-30,-34
1461663705079202,14,-8,-13,-21,-24,-33,-8,5
1461663705087224,27,9,-21,-41,-31,-14,-46,-11
1461663705087224,79,-4,20,-3,12,-14,-7,0
1461663705102204,43,-10,2,-33,-12,33,4,-16
1461663705102204,-115,8,52,30,-14,-15,-13,-37
1461663705109269,7,2,-38,1,18,-1,-10,29
1461663705109269,-27,-5,-10,3,14,-25,-19,-13
1461663705116274,53,-15,67,83,9,16,46,29
1461663705116274,28,1,-27,26,54,35,22,2
1461663705124266,-29,0,-40,-21,-19,-9,-34,-4
1461663705124266,-32,-1,15,0,-5,-21,-3,-10
1461663705139248,-27,-8,-38,-26,-30,-40,-3,-9
1461663705139248,15,-1,2,-45,-15,67,-1,-22
1461663705147252,2,11,18,-3,-2,-5,15,46
1461663705147252,-25,3,-23,-30,-30,9,22,16
1461663705162307,23,-12,25,20,11,7,-4,-1
1461663705162307,-17,-2,-27,-29,-20,-18,-51,-59
1461663705162307,37,-12,4,-17,-3,-4,-12,4
1461663705162307,57,-8,3,-24,-22,-18,25,16
1461663705176258,62,1,26,43,24,-6,4,24
1461663705176258,-58,-11,-24,-42,-16,-12,-9,-12
1461663705184264,-67,0,26,76,39,8,-30,-24
1461663705184264,-6,12,-13,-61,-28,-23,2,-11
1461663705199275,26,-15,-48,-21,-12,12,9,-12
1461663705199275,63,1,51,48,63,29,40,33
1461663705207277,-14,5,18,26,8,0,2,4
1461663705207277,4,-2,-3,7,-1,-7,-20,-13
1461663705222289,-12,-5,-5,-19,9,16,12,0
1461663705222289,-23,4,-5,-45,-43,-27,-15,9
1461663705222289,1,-5,-13,-10,-14,-28,-14,0
1461663705222289,-8,3,14,15,14,27,0,-16
1461663705236298,15,-15,3,-13,-8,17,-3,1
1461663705236298,2,1,-8,-6,0,-1,42,44
1461663705244305,2,3,-6,-13,-4,27,35,11
1461663705244305,61,-1,-5,3,0,2,5,-11
1461663705258314,-128,6,-3,16,-1,-39,-78,-22
1461663705258314,-33,-12,-12,-55,-46,-28,-61,-52
1461663705267320,105,4,5,-31,9,5,44,42
1461663705267320,35,13,23,-7,1,-10,16,41
1461663705282331,-84,-13,15,54,32,17,14,-37
1461663705282331,35,4,-9,15,10,0,-8,-18
1461663705282331,-23,1,-25,-124,-69,-15,-22,-5
1461663705282331,18,3,5,14,20,16,6,9
1461663705296353,81,-8,44,-4,28,7,28,27
1461663705296353,-16,5,7,39,22,4,5,5
1461663705304405,-13,-1,-6,32,9,9,-2,-13
1461663705304405,-26,0,-52,-4,-20,-21,-12,-5
1461663705318416,5,-20,-33,-21,-24,-6,-5,-3
1461663705318416,-28,-1,1,-16,-6,1,8,-1
1461663705334427,16,-96,-16,-8,-14,-9,-4,-3
1461663705334427,-39,-128,16,-3,-4,-16,-30,-2
1461663705342373,2,102,-7,3,-5,3,12,-4
1461663705342373,-3,127,-4,-23,-9,7,19,10
1461663705342373,-10,127,11,22,7,2,-26,-7
1461663705342373,-29,93,5,16,-3,-22,-12,-5
1461663705356442,-13,70,-10,-23,-7,18,17,-8
1461663705356442,39,127,20,4,24,27,106,49
1461663705364404,1,102,-5,20,27,-3,-52,-17
1461663705364404,-54,43,-12,9,-17,-47,-91,-49
1461663705378399,41,-2,-4,-29,-15,-19,-14,-1
1461663705378399,-1,-47,-12,-25,-20,-15,-19,-4
1461663705387470,-21,-128,17,61,31,21,43,17
1461663705387470,2,-128,2,-2,4,13,27,6
1461663705402433,24,-41,6,5,-4,0,3,0
1461663705402433,-7,-1,1,5,-2,-7,-16,-3
1461663705402433,2,-9,-15,-25,-15,7,4,-3
1461663705402433,-8,15,11,-9,-7,-12,-4,-4
1461663705416485,3,16,-7,7,-1,-8,-8,-7
1461663705416485,11,47,-8,1,4,2,-14,0
1461663705424432,-7,27,-1,-11,-7,-13,3,-5
1461663705424432,-9,47,3,1,4,15,10,-3
1461663705438461,-16,24,7,7,4,37,29,24
1461663705438461,-23,68,10,7,3,-31,-19,15
1461663705447448,48,25,4,-7,-9,5,-7,-18
1461663705447448,35,-17,3,4,1,-17,9,-16
1461663705470523,-8,-24,-7,-8,-10,-18,-6,-6
1461663705470523,-58,-8,-2,-2,7,24,-5,9
1461663705470523,0,-28,-2,3,2,-8,0,2
1461663705470523,68,-15,9,15,19,14,14,0
1461663705476468,14,-46,-12,8,-1,-6,-2,6
1461663705476468,-66,6,-18,-4,-12,-6,-11,1
1461663705484486,-3,-2,-10,-33,-21,-4,-4,-3
1461663705484486,58,4,7,-9,10,12,3,-8
1461663705498485,-15,15,-6,8,4,-5,-2,-9
1461663705498485,-54,18,10,23,6,-1,-5,2
1461663705506501,11,10,1,3,6,2,-1,1
1461663705506501,41,6,4,-5,-8,4,-1,-3
1461663705521512,-12,3,10,6,3,-6,0,-2
1461663705521512,-35,-16,-13,-10,-7,2,-3,3
1461663705522513,13,-10,-4,1,1,-6,-3,1
1461663705522513,23,-2,2,-3,-1,5,4,-3
1461663705536523,-10,-17,-4,-4,1,4,2,0
1461663705536523,-20,-13,-1,-3,-1,-1,-5,-1
1461663705551561,5,-14,2,-2,-1,-2,2,2
1461663705551561,15,-22,-12,-3,-3,-2,0,-3
1461663705558527,-2,-14,-1,-1,-3,-9,-3,-4
1461663705558527,-16,-3,4,1,1,9,-2,3
1461663705566571,2,-4,20,4,4,-1,0,-2
1461663705566571,14,-12,-34,-5,0,3,4,-2
1461663705581617,-4,-8,-5,-9,-6,-1,1,-2
1461663705581617,-12,2,6,9,3,-10,-5,2
1461663705582606,1,-9,13,1,-2,6,2,-1
1461663705582606,18,-3,-6,-2,-2,0,1,0
1461663705596633,-3,0,8,0,-1,-2,-5,-1
1461663705596633,-14,2,-12,-6,-3,-3,0,4
1461663705604639,0,12,-15,-6,-5,-2,-3,0
1461663705604639,9,7,12,10,2,3,0,-3
1461663705618694,-5,-13,-5,-4,0,-3,1,1
1461663705618694,-11,10,7,6,0,1,-1,4
1461663705626649,6,-6,-4,-2,-1,0,0,1
1461663705626649,7,14,4,-6,-3,2,-1,-5
1461663705642660,-2,7,0,1,0,-5,-3,-2
1461663705642660,-5,7,9,-1,0,0,-1,2
1461663705643674,-1,-3,-29,-12,-5,2,-3,-2
1461663705643674,0,-6,-9,-2,-2,-7,-2,-3
1461663705656721,-1,2,7,5,3,0,1,1
1461663705656721,-3,-5,12,-8,-3,-5,-2,2
1461663705664665,-3,9,1,8,5,13,-1,-1
1461663705664665,0,-6,2,-5,-3,2,5,-3
1461663705678704,-2,1,-6,0,-4,-3,-2,-5
1461663705678704,-3,-10,-7,-7,-3,-2,-1,1
1461663705686708,2,-1,3,4,-1,-7,-3,0
1461663705686708,0,-1,7,-3,2,-1,-5,-3
1461663705701719,-4,3,-4,-4,-3,1,-1,-2
1461663705701719,-5,3,3,8,-4,-3,-2,0
1461663705702697,3,7,-6,-7,7,-2,-2,4
1461663705702697,-5,-7,4,-5,-11,-3,-1,-4
1461663705716700,1,2,-7,6,3,-3,0,-3
1461663705716700,-6,-1,-5,-9,-4,1,0,-1
1461663705724706,-4,-4,12,4,0,-2,0,-3
1461663705724706,3,0,-8,-8,-3,0,0,-1
1461663705738731,-1,-7,-9,-8,-3,-1,-2,-2
1461663705738731,2,-5,-10,4,2,1,1,4
1461663705746761,-1,-8,0,-3,-3,0,-2,-1
1461663705746761,2,-6,6,6,4,2,2,1
1461663705761734,-8,-6,-3,2,-2,-4,-4,-5
1461663705761734,0,1,-1,-4,0,2,2,1
1461663705777755,1,-8,-5,-2,-2,-3,-2,-1
1461663705777755,1,-14,4,5,3,1,-1,-2
1461663705778746,2,-6,2,2,0,1,-1,1
1461663705778746,-3,-4,-2,-9,-1,-1,-1,1
1461663705784787,0,-3,-4,-1,-1,-1,-2,-1
1461663705784787,0,4,3,2,3,-2,0,-4
1461663705798770,3,5,3,-2,-2,-2,1,0
1461663705798770,-3,-4,-1,-4,-2,-2,-2,2
1461663705806823,-3,8,3,13,5,4,1,-2
1461663705806823,0,2,0,2,2,1,-1,-3
1461663705821791,-5,-11,-2,-2,-1,-1,-1,-1
1461663705821791,4,11,2,5,5,1,0,4
1461663705829886,3,1,-5,-6,-6,-3,-1,-1
1461663705829886,2,14,5,2,0,-1,0,-2
1461663705835936,-8,-17,-9,-2,-4,0,-2,-3
1461663705835936,3,14,0,1,-2,-2,-1,1
1461663705844908,-18,-35,-13,-8,-6,-4,-3,-4
1461663705844908,-1,9,-1,0,0,-1,-2,-2
1461663705858920,2,1,6,-1,-2,-3,-2,0
1461663705858920,-3,-8,-6,-5,-2,-1,-1,0
1461663705866901,2,3,4,-1,1,-2,0,0
1461663705866901,2,-5,-2,1,-1,0,-2,-3
1461663705880915,-8,-1,-8,-6,-2,0,-2,-3
1461663705880915,1,0,4,-1,-3,0,-2,2
1461663705889945,3,7,4,1,0,2,3,-1
1461663705889945,-6,-11,-3,-4,-4,-2,-1,-5
1461663705895939,1,9,7,2,-2,-4,-2,-1
1461663705895939,-3,-5,-3,-11,0,-2,-1,3
1461663705904946,3,3,2,6,6,1,1,0
1461663705904946,-3,-5,-3,3,0,-1,0,-5
1461663705918941,-1,2,-4,0,0,2,-2,-1
1461663705918941,2,-1,-3,-3,-5,-2,-2,2
1461663705926944,2,-6,1,-6,-3,-1,1,-1
1461663705926944,-4,-5,-4,-2,-2,1,-1,-5
1461663705941022,3,13,5,-2,-1,-3,-2,-1
1461663705941022,-2,-20,-8,0,-3,-2,0,1
1461663705949978,4,6,4,2,-1,-1,-1,-1
1461663705949978,5,10,1,0,-2,1,-1,-2
1461663705965033,-4,-14,3,-1,-1,1,-1,1
1461663705965033,1,9,-2,1,-1,-2,-2,3
1461663705965981,2,2,-1,1,0,-2,0,-2
1461663705965981,-4,-6,-3,-2,0,-1,-2,-2
1461663705979009,0,5,1,-3,0,-2,-1,-1
1461663705979009,0,3,1,1,1,3,1,4
1461663705987014,-3,-5,-6,-3,-1,-2,-1,0
1461663705987014,-2,3,2,-2,-1,-1,2,-3
1461663706001024,-3,-2,-1,0,-3,0,0,-3
1461663706001024,-1,1,-3,-2,-4,-3,-2,2
1461663706010032,0,0,-5,-13,-3,0,-2,-1
1461663706010032,-1,1,9,17,2,0,0,-2
1461663706025027,0,1,-2,-1,-2,-3,-2,-1
1461663706025027,-2,-5,-4,1,2,0,1,0
1461663706026014,-1,-1,-4,-4,-4,-3,-2,0
1461663706026014,0,-4,-6,-8,-3,-1,-1,-3
1461663706039037,-1,0,-1,-1,-1,0,0,-1
1461663706039037,6,2,-1,0,-1,-3,-3,2
1461663706047066,-5,2,2,8,3,1,0,1
1461663706047066,-3,-9,-5,-3,-2,0,0,-2
1461663706061076,-1,-3,-3,-2,-3,-2,-1,-3
1461663706061076,2,2,0,0,0,0,0,2
1461663706069082,5,4,2,1,0,-2,1,0
1461663706069082,-1,-2,-1,-2,-2,0,-2,-4
1461663706084094,-3,-5,-6,-4,-4,-2,-3,-2
1461663706084094,-2,4,4,3,0,0,0,2
1461663706085069,-1,-15,-3,0,-3,-1,0,0
1461663706085069,-3,0,-2,-4,-2,-3,-1,-3
1461663706099076,-2,-2,-1,-11,-7,-3,-1,-2
1461663706099076,-3,-7,2,18,15,3,0,3
1461663706107129,1,16,5,7,2,0,-1,-2
1461663706107129,-5,-2,-2,0,1,0,0,-2
1461663706121137,0,-2,-3,-1,-2,-3,-3,-1
1461663706121137,-3,-5,-1,-6,-4,-2,-1,1
1461663706129085,2,-1,-3,-9,-3,-1,-1,-1
1461663706129085,3,5,-3,-3,-1,-2,-2,-3
1461663706145126,-6,-7,3,2,1,-1,-3,-2
1461663706145126,-2,0,-1,-5,-4,-1,0,0
1461663706146104,2,3,0,2,2,0,-1,0
1461663706146104,-2,-9,-5,-4,-3,-2,-1,-3
1461663706159109,-4,-2,-2,1,0,-2,-1,-3
1461663706159109,0,-3,0,1,0,0,0,3
1461663706168113,-1,2,-2,-1,1,0,-1,-2
1461663706168113,0,-1,-2,-2,-2,-2,-3,-3
1461663706190189,0,0,-4,-3,-2,-1,0,-3
1461663706190189,1,-2,-2,-2,0,0,2,1
1461663706192145,-1,-1,-2,-6,-5,-1,0,-3
1461663706192145,-3,-6,-3,8,3,0,-2,-1
1461663706204198,1,3,-1,4,1,-1,-3,1
1461663706204198,2,1,1,-2,-2,-3,-1,0
1461663706213146,-1,-2,-3,-2,-3,0,1,-3
1461663706213146,0,2,-4,-18,-5,-1,1,-4
1461663706219149,-2,-5,3,14,3,-1,-1,-1
1461663706219149,2,-3,2,3,1,0,-1,3
1461663706228156,-1,0,0,-1,0,-3,-1,-1
1461663706228156,0,-3,0,1,0,-1,-1,-3
1461663706241182,1,5,-2,-8,-3,-3,-1,-2
1461663706241182,-6,-8,-3,-4,-2,0,-2,0
1461663706250172,-2,-5,1,9,2,0,-1,-2
1461663706250172,-4,-3,2,-2,-2,-2,-2,-3
1461663706264182,0,-1,0,-4,-3,-2,-2,1
1461663706264182,2,-1,0,1,-1,-1,-1,3
1461663706273216,0,1,0,-3,-3,-2,0,1
1461663706273216,-1,-5,-4,-2,-2,-2,-1,-5
1461663706279219,2,-1,-1,-6,-2,-2,0,-1
1461663706279219,-6,-8,-3,2,0,-1,-2,-2
1461663706288199,1,3,2,6,1,0,0,-2
1461663706288199,-1,5,6,4,0,-1,-2,0
1461663706301232,-3,-5,-3,1,-2,-1,-3,-1
1461663706301232,-1,4,-1,-8,-3,-2,0,1
1461663706310214,-1,-6,-3,-1,1,0,0,-4
1461663706310214,0,2,-2,-4,-1,-2,-2,-3
1461663706324236,0,-4,-2,-2,-3,-2,-1,-3
1461663706324236,1,2,0,0,-1,-1,0,2
1461663706333231,-3,-5,0,1,1,-1,-2,0
1461663706333231,-3,0,-3,-2,-3,-1,-1,-3
1461663706339250,1,1,-3,-7,-2,-1,-3,0
1461663706339250,5,4,2,4,0,-1,-3,4
1461663706348281,-2,2,2,0,0,0,-3,-2
1461663706348281,-1,-1,-2,-3,-2,0,0,-4
1461663706361289,1,1,-1,-3,-3,-4,-2,-1
1461663706361289,-4,0,2,0,2,1,-1,1
1461663706370259,3,-1,-5,-4,-3,0,1,1
1461663706370259,-3,-1,0,0,2,0,-1,-5
1461663706384282,-2,-3,-5,-5,-1,-1,0,-1
1461663706384282,-1,1,0,1,0,-1,-1,0
1461663706392377,-1,0,1,-1,0,-1,0,1
1461663706392377,0,2,-2,2,-2,0,0,-3
1461663706398379,0,-2,2,5,1,0,-1,0
1461663706398379,3,-2,-1,-3,-4,-2,0,2
1461663706407432,-3,-1,-4,-2,-3,-1,-1,-2
1461663706407432,-3,0,-6,-5,-4,-1,-1,-4
1461663706421443,-2,-3,3,2,1,0,-1,0
1461663706421443,0,-1,-2,-2,-1,-1,-1,1
1461663706430390,0,-2,1,2,1,-1,-1,-2
1461663706430390,-2,-2,-1,4,-1,-1,-1,-3
1461663706443399,-4,-3,-2,-3,-2,1,-1,-1
1461663706443399,0,-1,-1,-1,-1,0,-1,1
1461663706452464,0,-5,-1,-6,-2,-2,-1,-3
1461663706452464,-2,5,3,6,1,0,-1,-3
1461663706458424,-8,-3,1,-2,-2,-2,-2,-1
1461663706458424,1,-4,-2,0,-3,-2,0,2
1461663706475423,1,5,-2,-1,0,0,1,-2
1461663706475423,-1,-2,0,2,4,0,1,-3
1461663706481432,-2,-1,-3,-5,-2,-2,-1,0
1461663706481432,1,1,-1,-3,-3,-1,-1,3
1461663706490433,-2,-5,-3,-5,-6,-3,-2,-2
1461663706490433,-1,0,6,11,4,0,-1,-3
1461663706503470,-1,-4,-4,-2,0,2,0,1
1461663706503470,1,1,0,-3,1,-1,-2,1
1461663706512477,0,-2,-3,-6,-4,-1,0,0
1461663706512477,-3,-1,-2,-6,-2,-3,-2,-2
1461663706518453,-1,-2,-3,1,0,-1,-2,0
1461663706518453,4,6,-1,-1,0,2,-1,0
1461663706527458,-5,-7,0,0,1,1,2,-1
1461663706527458,-1,-2,1,1,-3,-2,0,-5
1461663706541468,0,5,-1,-1,-2,-4,-3,-1
1461663706541468,-1,0,-3,-2,-1,1,-1,-2
1461663706550475,-5,-6,0,3,2,-1,0,-3
1461663706550475,-1,-4,-3,-5,-3,-1,-2,-3
1461663706563496,0,2,0,0,0,-1,1,0
1461663706563496,4,2,0,-1,-1,-1,-1,0
1461663706572490,-2,-6,0,3,0,-1,0,-3
1461663706572490,-4,1,-2,-1,-2,-3,-3,-5
1461663706578511,3,4,-1,-3,-4,-1,1,0
1461663706578511,-3,0,0,1,1,0,1,1
1461663706587499,1,0,-2,-1,0,0,-1,-2
1461663706587499,-4,-6,-1,-5,-4,-1,-2,-5
1461663706601551,-1,-4,-8,-6,-3,-2,-2,1
1461663706601551,2,0,1,4,-1,-2,0,2
1461663706610517,1,3,1,3,2,0,2,0
1461663706610517,-4,-4,-4,3,0,-1,0,-3
1461663706623598,0,-1,1,1,-1,-1,-1,0
1461663706623598,-5,-5,-3,-6,-3,0,-1,1
1461663706640562,-1,3,0,-2,1,1,-2,-3
1461663706640562,1,0,-2,-7,-4,-2,-2,-3
1461663706641545,-2,-2,0,0,-2,-2,-1,0
1461663706641545,-1,-4,0,-1,-3,-2,-1,-1
1461663706647568,3,0,0,1,-1,-2,-1,0
1461663706647568,-3,5,-1,-2,1,-1,-2,-2
1461663706661579,-6,-11,-3,-1,1,-1,0,0
1461663706661579,2,7,1,4,1,-1,2,1
1461663706670584,-2,2,1,-3,-1,0,-1,-3
1461663706670584,-1,-2,-2,0,-1,-1,-1,-2
1461663706683583,-2,-3,-1,2,-1,0,-3,-1
1461663706683583,-2,-3,-1,0,-1,-1,-2,2
1461663706692574,0,0,-2,-4,-2,0,-2,0
1461663706692574,2,0,-1,-3,-2,-2,0,-1
1461663706698608,-10,-11,-2,5,-1,-1,-4,-1
1461663706698608,0,0,-2,-5,-1,0,1,2
1461663706707586,2,3,3,5,2,-1,-2,-2
1461663706707586,-3,-4,-3,-6,-3,0,0,-4
1461663706721610,3,2,-1,-3,-2,-2,-2,0
1461663706721610,-2,-4,-1,-1,1,-1,-1,0
1461663706730604,-2,1,-1,-1,-1,-1,0,-2
1461663706730604,-6,-3,-2,-3,-4,-3,-1,-3
1461663706743617,1,2,1,0,-1,-1,0,0
1461663706743617,-1,-3,-2,-1,0,-1,-1,0
1461663706752623,-1,0,0,-1,-3,-2,0,-2
1461663706752623,0,-2,-4,-6,-3,-1,0,-4
1461663706758628,-3,-2,-1,5,0,1,0,-1
1461663706758628,0,1,5,9,6,0,2,2
1461663706767630,-2,0,-2,0,-1,-1,-2,-3
1461663706767630,-4,-6,-1,3,2,-1,-3,-4
1461663706781653,2,1,-1,-4,-2,-1,0,1
1461663706781653,1,0,-1,-3,-4,-1,-1,-1
1461663706790678,-1,-1,-4,-4,-3,-1,0,0
1461663706790678,-2,-1,-4,0,0,-2,-2,-3
1461663706803713,2,1,-2,-2,-2,0,-1,0
1461663706803713,0,-3,-1,-3,-1,-1,0,0
1461663706812661,-3,-2,-1,0,-2,-2,-2,-2
1461663706812661,-5,-1,-2,-2,-2,0,-2,-2
1461663706818723,0,-3,-1,1,-1,-1,-2,1
1461663706818723,1,-1,-4,0,0,0,0,1
1461663706827675,-3,-3,-1,-3,-1,-1,1,-2
1461663706827675,-2,4,2,0,-1,-2,-1,-3
1461663706841681,0,-1,-1,-4,-1,-3,-1,0
1461663706841681,-1,0,0,-1,-2,-2,-2,-1
1461663706850686,2,-4,-3,-2,1,1,0,-1
1461663706850686,-2,-3,0,2,-1,0,-1,-2
1461663706863768,2,4,3,3,2,0,-1,2
1461663706863768,-6,-15,-2,-3,-1,-1,-1,-2
1461663706872703,0,6,-3,0,-1,-1,0,-1
1461663706872703,-2,-3,-3,-4,1,-1,0,-3
1461663706887714,1,1,1,-5,-5,-3,-3,0
1461663706887714,0,2,0,6,0,-1,-3,0
1461663706889716,-2,0,1,-3,1,0,-2,-1
1461663706889716,-1,-1,0,1,-2,-1,-1,-2
1461663706901723,1,-3,-4,1,0,-1,-1,1
1461663706901723,-5,-1,-4,-7,-2,-1,2,-2
1461663706910729,-1,-2,-3,-1,-1,0,-1,-3
1461663706910729,0,1,-1,-2,-2,-1,-2,-4
1461663706923738,2,-3,-2,-2,0,-1,-1,1
1461663706923738,3,5,0,-2,-1,0,-1,1
1461663706932744,-1,0,0,0,0,-1,0,-2
1461663706932744,-5,-3,-1,0,0,-2,-3,-4
1461663706947757,1,0,-3,-1,0,-1,-1,2
1461663706947757,-1,-2,0,0,0,-1,-1,1
1461663706949757,-2,1,-1,-1,-2,-3,-2,-2
1461663706949757,-1,-1,2,2,0,-1,-2,-2
1461663706961764,-1,-3,-1,-4,-1,-3,0,0
1461663706961764,4,3,-2,0,-2,1,0,2
1461663706976775,-4,0,1,1,-2,1,1,-2
1461663706976775,-3,-7,-4,-8,-5,-2,-4,-4
1461663706983839,2,2,1,2,0,-1,0,0
1461663706983839,1,-5,0,0,0,0,-1,0
1461663706992786,-3,-1,0,0,1,0,-2,-2
1461663706992786,-1,2,1,-1,-1,-2,-1,-2
1461663707007860,-1,0,-2,-3,-2,-1,-3,1
1461663707007860,1,3,-5,-15,-5,-2,1,0
1461663707009808,-3,-2,4,15,2,0,-3,-4
1461663707009808,1,-6,-5,-7,-2,-1,-1,-1
1461663707021842,-3,-1,-1,-11,-2,-1,-2,-1
1461663707021842,1,3,0,10,3,-1,0,-1
1461663707030822,-4,-4,-3,-4,-2,0,-1,-3
1461663707030822,-2,4,-2,0,-3,0,1,-2
1461663707043852,1,-2,-2,6,-1,1,1,1
1461663707043852,-3,-5,-3,-8,-2,0,-3,0
1461663707052832,-2,-3,-1,-4,-1,-1,-1,-1
1461663707052832,-4,-2,-1,1,-1,-1,-2,-3
1461663707067855,4,1,-4,-8,-3,0,-1,3
1461663707067855,-1,-3,0,5,1,0,1,0
1461663707068856,1,2,2,-1,0,-1,0,0
1461663707068856,-3,-5,1,-3,-1,-1,-3,-3
1461663707080865,-1,-1,-1,-2,-3,-3,-2,0
1461663707080865,-1,2,1,2,1,-2,-2,0
1461663707089916,-2,-3,1,1,1,0,-2,-2
1461663707089916,-2,-5,-5,-4,-1,-2,-1,-1
1461663707103924,-1,4,-2,0,-1,0,0,0
1461663707103924,1,1,4,5,3,-3,1,0
1461663707112872,-3,-2,-5,-8,-4,0,1,-1
1461663707112872,-2,-1,-2,1,-4,-2,-2,-2
1461663707127891,-1,-5,0,-2,1,1,-2,0
1461663707127891,0,1,0,-1,-1,0,-2,-1
1461663707128892,-3,2,-3,-2,-2,0,-1,-3
1461663707128892,-3,2,-3,-5,-3,-2,-2,-4
1461663707140900,-1,-4,3,6,-1,0,1,2
1461663707140900,2,5,0,-2,-1,0,1,1
1461663707150906,-9,-13,-2,-8,-4,-3,-3,-3
1461663707150906,2,3,0,3,3,-2,-1,-1
1461663707163911,2,-5,-3,-1,0,-2,0,-1
1461663707163911,0,-2,-2,-1,-1,0,0,-1
1461663707172931,4,5,1,1,2,1,1,-1
1461663707172931,-4,-5,-5,-5,-3,-1,-2,-3
1461663707187925,-1,-3,1,0,-2,-1,-3,1
1461663707187925,1,2,0,-2,-1,0,-1,1
1461663707193988,1,-1,1,3,4,0,0,-2
1461663707193988,0,13,2,-1,-2,0,-3,-2
1461663707200994,1,-1,1,-2,0,-1,0,2
1461663707200994,-4,-7,-1,0,-1,-1,-1,-1
1461663707210000,1,3,-1,-3,-1,-2,0,-2
1461663707210000,-3,-7,-2,1,-2,-1,1,-2
1461663707223953,2,2,-1,-2,0,0,-1,2
1461663707223953,-2,-1,-2,-5,-2,0,-2,-1
1461663707232965,-2,2,0,-3,0,0,0,-1
1461663707232965,-1,-2,0,1,-1,-1,-1,-4
1461663707248001,-1,-3,-3,-1,-4,-3,-1,1
1461663707248001,-1,-4,1,-1,-1,-1,-1,1
1461663707248970,1,3,0,-2,0,0,-1,-2
1461663707248970,-2,-1,-4,-3,-1,-2,-2,-1
1461663707260978,1,-2,7,16,4,1,-1,-1
1461663707260978,-1,-5,-1,2,3,1,2,1
1461663707269989,-2,1,-1,0,-2,0,-3,-2
1461663707269989,-4,-5,-4,-7,-5,-3,-3,-5
1461663707283997,0,1,-2,-9,-6,-2,-2,0
1461663707283997,1,3,0,1,1,0,1,1
1461663707300028,1,0,-1,1,-2,-1,-1,0
1461663707300028,-4,-5,0,-2,-1,0,-2,-2
1461663707308026,2,2,-1,0,2,-1,0,0
1461663707308026,-2,2,1,-2,-2,-1,-1,0
1461663707309010,0,3,-2,-2,-1,-3,0,-2
1461663707309010,-1,-8,1,2,1,0,-1,-2
1461663707321078,2,2,-2,-3,0,0,1,1
1461663707321078,-2,1,-1,4,-2,0,-2,-1
1461663707330025,-3,0,4,4,0,1,1,-2
1461663707330025,-1,0,-1,-2,-3,-2,-1,-3
1461663707344065,-1,-5,-4,-2,-3,-1,-1,3
1461663707344065,-3,-3,-3,-5,0,-1,0,-1
1461663707353044,-4,-5,2,3,0,-2,0,-2
1461663707353044,1,10,-5,-16,-5,-2,-4,-4
1461663707367059,-2,-6,6,18,4,1,-1,2
1461663707367059,-6,-14,-3,-2,-3,0,-2,-1
1461663707374059,-2,5,0,3,1,-1,0,-2
1461663707374059,-3,-7,-4,-9,-3,-4,-1,-4
1461663707381091,4,5,-4,-9,-3,-1,0,2
1461663707381091,3,7,-3,-5,-6,-2,-2,0
1461663707390069,-1,-10,0,-3,-1,0,-1,-2
1461663707390069,0,3,3,8,0,-1,-2,0
1461663707404081,1,3,1,1,0,0,-2,0
1461663707404081,-4,-8,3,6,1,-2,-1,-1
1461663707413089,-1,-2,-6,-11,-6,-4,-2,-1
1461663707413089,2,-6,-5,8,2,0,0,-2
1461663707428096,-2,3,-5,-7,-3,-2,-1,0
1461663707428096,2,2,-1,-4,-1,0,-1,1
1461663707429097,-2,4,-3,-4,-3,-1,-4,-2
1461663707429097,1,-10,-2,-3,-3,-1,-2,-1
1461663707441104,-3,-4,3,10,4,1,-1,1
1461663707441104,2,4,-1,-3,-1,-2,1,0
1461663707450110,-1,-5,0,8,1,-2,-2,-2
1461663707450110,-1,5,-3,-9,-4,0,0,-1
1461663707473127,-4,-8,-4,-12,-5,-1,0,1
1461663707473127,-1,1,5,6,2,-1,-2,0
1461663707474128,-1,-4,-4,-3,-1,1,0,-2
1461663707474128,-7,-9,-1,-4,-6,-4,-2,-1
1461663707487139,3,4,-1,11,4,2,1,2
1461663707487139,-2,-6,-4,1,2,0,1,1
1461663707494146,-1,3,0,-2,-2,-1,-2,-3
1461663707494146,0,-1,-1,1,4,-2,0,-6
1461663707501150,0,0,1,-5,-4,-3,-1,1
1461663707501150,-2,-1,-1,-3,-1,-1,-2,-1
1461663707510158,4,4,-2,1,-1,-2,-2,0
1461663707510158,-4,-2,1,3,-3,-3,-4,-3
1461663707524175,-4,-3,-2,-3,-3,-2,-1,1
1461663707524175,1,2,1,2,2,0,0,0
1461663707533181,-1,1,-1,-3,1,1,1,-2
1461663707533181,-2,1,-2,-2,-1,4,1,-3
1461663707547180,5,1,1,-2,2,-1,-1,3
1461663707547180,0,1,-2,-3,-3,0,-1,2
1461663707554201,-3,-2,0,-1,-2,-2,-1,-2
1461663707554201,2,1,2,4,1,-2,-4,-3
1461663707561189,-2,-5,-4,-9,0,-2,-2,1
1461663707561189,0,5,1,1,-1,-1,-1,0
1461663707570207,-2,-4,-1,-1,-3,-4,-1,-5
1461663707570207,-1,0,-1,4,1,0,-2,-4
1461663707584245,1,5,1,-1,0,-1,1,1
1461663707584245,-1,0,0,0,-1,-1,-1,2
1461663707593270,1,3,-1,-4,-2,3,2,-2
1461663707593270,-4,-6,-9,-17,-7,-4,-3,-7
1461663707606283,-6,0,6,14,0,-4,-8,-2
1461663707606283,2,0,0,1,3,0,3,2
1461663707615228,-4,-4,4,15,7,5,10,1
1461663707615228,3,4,1,-1,0,-2,-6,-1
1461663707621294,3,-2,-8,-9,-2,-3,-9,-4
1461663707621294,0,0,-3,-5,-3,-4,-6,0
1461663707630238,-1,0,-4,-6,-2,0,-3,-4
1461663707630238,-7,-6,2,5,-1,2,7,-2
1461663707644249,4,-1,1,-1,0,4,7,3
1461663707644249,-3,-3,-5,-9,-4,-2,-1,1
1461663707653272,-4,1,2,0,-3,-2,-1,-4
1461663707653272,3,4,2,3,2,-1,0,-1
1461663707667326,-2,-3,-8,-15,-8,-5,-4,-2
1461663707667326,1,2,1,10,8,2,1,2
1461663707674311,-4,-9,-4,-11,0,-1,-2,-1
1461663707674311,6,6,10,20,6,-1,-2,0
1461663707681304,-10,-2,-5,-2,-1,2,-2,0
1461663707681304,-6,-19,-8,-16,-10,-2,-3,-5
1461663707690310,-3,-5,3,2,1,-3,-1,-1
1461663707690310,2,-7,-10,-9,-2,4,13,2
1461663707704320,2,12,5,-3,-1,1,-8,3
1461663707704320,-6,8,2,8,-3,-3,3,0
1461663707719331,0,7,3,3,0,4,10,1
1461663707719331,-7,-15,-6,-13,-7,-7,-28,-9
1461663707727322,2,-6,2,2,-5,-8,15,2
1461663707727322,9,4,-5,-4,1,-2,-20,4
1461663707734327,3,4,-2,-2,-1,-5,-6,-5
1461663707734327,-2,7,0,-29,-10,-4,4,-6
1461663707741332,-5,-12,-4,10,5,11,6,2
1461663707741332,1,8,-5,-37,-15,-1,19,3
1461663707750339,0,-17,4,28,15,5,-1,0
1461663707750339,-4,-5,-4,7,1,2,-2,-3
1461663707764333,6,4,17,19,4,1,8,4
1461663707764333,4,13,13,-10,-2,-1,-9,-2
1461663707772377,-4,-8,-28,-20,-5,7,11,0
1461663707772377,2,25,0,6,0,6,-4,-4
1461663707786377,8,-16,-2,-16,-6,-21,-17,7
1461663707786377,8,8,-2,7,-10,-13,1,3
1461663707795361,-11,-9,1,4,7,4,-1,-8
1461663707795361,3,-2,1,2,-6,6,-4,1
1461663707810373,-10,-5,-13,-24,-16,-5,-7,-12
1461663707810373,6,-16,-3,-13,-23,-20,-11,0
1461663707811370,2,22,20,2,9,-10,-34,-1
1461663707811370,4,47,-13,21,39,2,18,-4
1461663707823378,14,-2,16,29,14,18,22,19
1461663707823378,-4,13,0,39,31,13,-4,-3
1461663707833384,-2,-7,1,-5,-6,-5,1,-4
1461663707833384,-2,18,18,19,2,6,12,-2
1461663707846406,-2,-20,-7,-52,-13,14,14,-1
1461663707846406,-13,-37,-21,2,-2,14,-18,-6
1461663707855397,6,-6,12,31,2,-14,11,-2
1461663707855397,4,-5,-15,-14,-17,-5,16,1
1461663707870425,16,37,9,-4,21,8,-16,17
1461663707870425,-30,-12,7,10,4,-19,-33,-24
1461663707871424,11,57,15,-45,-39,-25,-67,-15
1461663707871424,17,-48,-16,15,24,26,63,19
1461663707883417,-44,-13,-36,-25,-19,-10,16,-4
1461663707883417,0,38,36,35,9,11,43,23
1461663707892423,27,-60,-33,-50,-30,-6,-44,-9
1461663707892423,7,99,5,-23,-37,2,28,-13
1461663707906435,-22,43,5,40,31,0,-47,11
1461663707906435,-20,88,-62,-30,-37,-61,-69,-10
1461663707915466,3,-46,59,41,11,2,24,-4
1461663707915466,-5,-40,9,-14,3,9,-1,-7
1461663707930452,3,94,7,-30,8,27,43,5
1461663707930452,-21,48,-44,61,51,29,48,9
1461663707931453,14,-11,15,-12,-13,-1,17,-1
1461663707931453,-4,-62,-13,1,-7,-8,-59,-4
1461663707943460,-6,-30,12,-16,-9,1,37,-6
1461663707943460,-9,-51,16,-11,-8,22,3,-5
1461663707952466,-16,10,-30,49,35,0,-31,2
1461663707952466,16,-49,15,-5,-23,-54,-66,-11
1461663707966475,-27,-16,-27,7,-5,-33,-54,-2
1461663707966475,-1,-21,1,-47,-20,20,73,6
1461663707975495,17,-11,-49,-56,-3,16,-17,-20
1461663707975495,0,-7,23,81,35,-12,11,-9
1461663707997554,1,-17,0,-30,-26,11,72,31
1461663707997554,-14,-14,23,-27,-9,9,2,-12
1461663707999519,12,14,25,63,27,-8,-12,-10
1461663707999519,-2,-14,12,-7,-16,-25,-36,-15
1461663708003560,13,-3,-67,-45,-7,12,-20,0
1461663708003560,12,3,37,92,56,8,-18,28
1461663708012524,-52,15,-15,-39,-30,-28,-10,-16
1461663708012524,-3,-23,30,-55,-42,12,49,-38
1461663708026531,28,-20,15,127,94,55,38,12
1461663708026531,20,2,0,-72,-34,-9,-56,46
1461663708035526,-20,6,-48,11,-3,-32,22,-15
1461663708035526,-2,-17,-14,-38,6,26,50,16
1461663708050549,-8,-3,43,-7,-34,-27,-22,-19
1461663708050549,11,-3,1,11,29,4,-16,-1
1461663708056598,16,-1,18,17,5,3,8,-7
1461663708056598,33,-15,-58,-124,-54,14,56,20
1461663708063602,-2,0,66,104,51,7,-24,15
1461663708063602,-22,3,15,9,-5,-20,48,-6
1461663708072567,-19,-6,-10,-114,-56,10,-38,-4
1461663708072567,20,-10,-18,96,59,-42,-117,-18
1461663708086619,5,-4,-24,-57,-37,-37,-44,25
1461663708086619,-24,2,10,-15,-7,-3,-27,-18
1461663708101583,28,-1,-13,-97,1,61,127,20
1461663708101583,37,-10,-4,25,12,17,21,-13
1461663708110641,-13,-1,15,95,20,-28,-87,4
1461663708110641,-58,11,29,-23,-12,-8,42,12
1461663708111578,12,-2,-1,-53,-44,6,37,-29
1461663708111578,92,-35,-38,-47,33,40,-32,-22
1461663708140663,-76,13,-15,40,42,-7,17,16
1461663708140663,-94,23,-4,29,-6,-6,36,-7
1461663708141601,19,-7,14,-26,-12,21,-14,1
1461663708141601,71,-32,-7,20,-9,1,64,26
1461663708146608,-30,12,-46,-57,-41,-45,-88,-11
1461663708146608,-50,17,-11,-38,-32,-45,-47,2
1461663708155616,18,0,-6,59,26,4,53,15
1461663708155616,43,-28,1,-58,-29,-4,29,-40
1461663708170625,-38,4,16,-112,-48,7,-31,-31
1461663708170625,-41,26,-68,66,42,-1,59,24
1461663708171620,49,10,58,127,107,58,-100,-3
1461663708171620,47,-55,48,10,-27,-74,-33,-2
1461663708183644,-29,6,-60,-80,-59,19,85,8
1461663708183644,-74,40,60,6,-18,1,-39,28
1461663708192650,18,-4,-66,86,45,-4,46,-5
1461663708192650,43,-33,28,6,0,65,96,13
1461663708206702,-50,-4,55,30,50,1,-61,-12
1461663708206702,-45,27,-72,-128,-56,-21,-13,25
1461663708215654,45,2,35,44,25,19,3,-4
1461663708215654,24,-27,26,63,5,-41,-88,-42
1461663708230661,-19,-2,-17,-62,-40,-5,44,9
1461663708230661,-32,31,32,46,41,32,46,32
1461663708231664,28,9,16,-60,-37,-2,17,46
1461663708231664,-14,-26,-32,-81,-56,-61,-49,-43
1461663708243797,-22,-3,0,62,18,-1,4,-26
1461663708243797,-15,23,11,-20,-2,33,-124,29
1461663708252805,-1,2,-72,-99,-65,-33,-41,-11
1461663708252805,31,-22,101,111,57,12,3,-20
1461663708274823,-9,6,-13,9,6,-30,-1,44
1461663708274823,-30,20,-54,-35,-14,17,50,-2
1461663708276821,18,-10,12,69,30,-12,-43,-60
1461663708276821,6,0,37,-7,6,-21,-34,0
1461663708289848,0,14,-61,2,-35,9,57,-5
1461663708289848,-25,-13,14,-36,29,73,75,47
1461663708291831,14,-11,17,-11,8,-23,-45,43
1461663708291831,-128,24,-73,57,62,-2,-95,-20
1461663708303858,-32,-5,69,63,34,16,67,10
1461663708303858,64,-16,-14,13,-26,23,-2,21
1461663708312867,11,-22,-24,-73,-46,-49,-37,-40
1461663708312867,50,15,-41,-113,-42,0,-33,-8
1461663708326864,-10,8,14,77,39,11,8,36
1461663708326864,-23,-13,-1,-9,-22,-43,-9,-33
1461663708335870,24,-15,8,-78,-29,12,33,-42
1461663708335870,11,13,-37,14,5,-15,18,21
1461663708349880,-24,2,91,6,13,37,5,22
1461663708349880,-7,-10,-9,-75,-15,7,-5,-15
1461663708351876,-45,-24,-13,81,28,-31,-20,-45
1461663708351876,15,20,29,29,-1,38,35,17
1461663708363898,-9,2,38,23,42,1,29,51
1461663708363898,60,-16,-54,-23,11,-17,-17,17
1461663708372906,-10,-6,-11,-39,-40,28,63,-4
1461663708372906,-11,16,41,30,47,21,-73,-39
1461663708386898,6,5,4,-42,-31,-65,-61,-6
1461663708386898,37,-13,67,19,9,-21,31,9
1461663708394903,-128,2,-66,-22,-40,-5,-17,-28
1461663708394903,-49,4,-47,-54,-32,-3,7,19
1461663708409975,-34,8,2,-17,-7,46,73,41
1461663708409975,-21,-4,-31,-45,-54,-72,-128,-52
1461663708411917,55,-18,92,66,52,22,22,33
1461663708411917,21,12,-26,-64,-13,1,9,22
1461663708423924,-19,1,-77,-55,-44,-14,-31,-73
1461663708423924,52,-7,31,33,31,39,33,-12
1461663708439936,37,-7,7,-16,-28,0,6,26
1461663708439936,-128,19,26,45,46,-11,-4,35
1461663708445941,9,-2,-29,-128,5,60,105,30
1461663708445941,-41,-5,-51,35,7,19,-30,-8
1461663708454947,14,-7,49,-6,-10,-100,-97,-5
1461663708454947,-53,10,-8,-16,14,27,87,41
1461663708469987,-20,2,-24,30,16,29,-19,-17
1461663708469987,-43,-7,-7,15,-9,-2,-12,-38
1461663708471973,31,-5,-7,18,-4,-9,-27,-16
1461663708471973,-56,12,-6,-7,-39,-28,35,3
1461663708483981,-15,-2,-29,-51,-39,-21,-63,16
1461663708483981,-15,-1,-64,-57,-42,-7,-10,-36
1461663708492975,9,-11,54,22,23,30,48,-7
1461663708492975,44,8,14,59,30,14,57,34
1461663708505994,-23,-1,7,50,10,-3,-17,18
1461663708505994,5,-2,25,-89,-36,-25,-20,-10
1461663708515000,0,-8,-101,-83,9,68,58,42
1461663708515000,-72,12,83,63,23,0,-54,-58
1461663708530011,11,2,-10,13,-14,-70,-106,14
1461663708530011,27,-9,2,0,22,15,-12,9
1461663708536015,-9,-7,39,39,8,-2,62,10
1461663708536015,-7,8,-30,-44,-36,-10,-55,-29
1461663708544021,-9,3,-2,-26,-16,5,65,37
1461663708544021,-33,-3,-12,-22,22,-3,-14,-32
1461663708553027,-1,-13,-17,38,-13,-37,-47,-13
1461663708553027,23,5,-23,-6,41,54,40,50
1461663708566066,-18,-1,77,69,-22,-59,-46,-33
1461663708566066,-52,7,-20,25,16,16,34,3
1461663708575031,3,-14,4,-53,-18,2,-6,-37
1461663708575031,58,-1,-67,-83,-33,-13,10,21
1461663708590055,-6,-1,46,84,33,22,-28,6
1461663708590055,12,-6,9,21,14,17,31,4
1461663708596046,-98,-15,16,-10,-9,17,-9,-41
1461663708596046,-35,9,-11,-11,35,24,23,26
1461663708604052,-1,-2,12,-53,-22,-36,21,41
1461663708604052,71,-5,18,54,-25,-42,7,27
1461663708613059,-4,-8,-25,-46,-12,-16,-69,-26
1461663708613059,31,7,4,7,7,28,5,-13
1461663708627067,-15,2,-14,-5,28,21,-26,-49
1461663708627067,89,-3,41,56,21,-26,14,9
1461663708635072,21,-6,-81,-77,-72,-16,46,-9
1461663708635072,-57,-1,81,56,26,13,-1,1
1461663708649082,-14,0,-52,-24,37,38,7,11
1461663708649082,-12,-6,-28,-66,-25,-6,11,-3
1461663708656089,34,-8,93,26,60,25,46,24
1461663708656089,-26,12,-10,-3,-36,-26,-46,-13
1461663708664095,-26,-1,-6,10,-17,-10,-38,6
1461663708664095,-3,-5,39,54,43,8,18,-2
1461663708673149,6,-3,-39,-63,-36,-9,-25,-31
1461663708673149,-50,12,-13,38,-1,-15,-46,13
1461663708686203,-1,2,-15,-26,-19,-6,-24,-37
1461663708686203,-48,0,4,29,15,-14,59,-19
1461663708695150,0,-3,12,37,25,43,9,52
1461663708695150,-54,4,-14,-40,-39,-34,-7,3
1461663708709171,-4,-3,-42,-47,-26,-10,-60,-16
1461663708709171,45,-8,33,6,-15,-31,-75,-17
1461663708716223,-1,-5,-29,3,2,-9,32,-28
1461663708716223,10,5,-17,-64,-11,35,46,20
1461663708724230,0,3,-14,9,25,29,25,10
1461663708724230,-10,-1,41,29,-32,-1,9,-4
1461663708733177,2,-7,37,109,71,8,12,-8
1461663708733177,3,11,1,-11,-19,-10,-23,9
1461663708746216,-12,1,29,57,40,7,21,5
1461663708746216,-22,-2,-18,-16,13,8,-2,-3
1461663708755194,1,-6,-18,11,-13,-13,-16,-7
1461663708755194,-3,13,-2,-38,-28,-32,-18,16
1461663708769232,0,-1,-27,-50,-37,10,29,0
1461663708769232,-12,-3,33,25,29,73,-6,8
1461663708776216,-4,1,-23,-8,-13,-60,2,-25
1461663708776216,-23,2,-20,-22,-14,-11,4,16
1461663708793222,-4,1,12,-25,-12,-71,-65,-8
1461663708793222,-13,-2,-5,20,7,28,6,21
1461663708794223,-3,-8,-31,-26,-9,50,3,-29
1461663708794223,9,5,-19,-12,-18,-26,-10,-7
1461663708806248,-5,0,19,11,9,19,47,19
1461663708806248,-13,-6,10,-26,-15,-32,0,-19
1461663708815238,-5,-8,9,22,33,-7,-9,2
1461663708815238,-10,3,1,4,4,17,10,0
1461663708829265,-3,-1,-28,-32,7,5,11,12
1461663708829265,-2,-6,24,41,38,5,-3,-12
1461663708836262,-3,-4,10,-31,-17,-8,-16,-14
1461663708836262,21,1,1,30,3,-3,-17,2
1461663708852302,-5,2,4,-17,-3,8,29,28
1461663708852302,-62,2,-33,-33,-22,2,5,14
1461663708854278,-5,-10,-18,-7,-19,-4,-35,-15
1461663708854278,-49,7,-13,4,7,14,49,-6
1461663708866273,-7,2,13,2,-14,-35,-50,-6
1461663708866273,8,2,-10,-8,-5,-22,-26,-7
1461663708875280,-6,-9,5,30,7,12,1,-9
1461663708875280,-7,9,-30,-68,-31,-11,-8,2
1461663708889327,-5,2,29,-1,-2,25,41,20
1461663708889327,-6,-1,10,73,58,7,13,-4
1461663708896322,-6,-6,-20,-49,-8,-9,-5,-5
1461663708896322,-11,1,43,87,40,13,-1,3
1461663708912334,-11,4,4,-5,1,15,18,-1
1461663708912334,22,-2,-13,-46,-13,-10,-14,-10
1461663708919339,-1,-4,2,28,-3,-19,-6,-1
1461663708919339,-19,0,2,4,12,-11,-16,3
1461663708926330,-7,-1,6,3,-11,9,1,-3
1461663708926330,19,-4,-7,-11,-20,-21,-15,-15
1461663708935320,-2,-5,-24,-14,1,67,9,-13
1461663708935320,9,-2,-4,-17,-12,-12,-4,11
1461663708949361,-8,2,-2,14,-1,5,8,-2
1461663708949361,21,-1,5,-14,-2,3,21,11
1461663708958339,-2,-7,8,5,2,-33,-14,1
1461663708958339,-11,3,6,13,-2,5,-39,-15
1461663708973405,-5,2,-12,-19,-1,-1,-7,-18
1461663708973405,-2,2,-16,-4,-8,-17,2,-19
1461663708974363,-3,-7,-5,-28,-26,-23,-13,10
1461663708974363,-25,0,15,6,5,0,8,10
1461663708995392,-3,0,3,0,5,-4,12,-1
1461663708995392,5,-4,28,25,21,20,9,-4
1461663708997372,-4,-6,12,24,17,-17,6,18
1461663708997372,0,5,-59,-42,-16,4,6,11
1461663709009381,-3,-20,13,7,-2,-16,-1,-31
1461663709009381,-21,-20,-23,-15,-18,7,-11,-13
1461663709017398,-85,36,-9,-4,2,21,9,36
1461663709017398,-37,1,7,16,12,-7,-2,13
1461663709032409,37,-20,-5,-4,-6,-16,5,-25
1461663709032409,27,-33,-11,-14,-11,-18,-12,-21
1461663709034392,-40,27,23,10,1,26,11,26
1461663709034392,-40,-69,2,3,3,-8,-3,6
1461663709046398,52,-128,1,1,-3,10,6,-23
1461663709046398,36,-86,2,-5,-3,-8,-12,-31
1461663709055405,-25,127,3,3,5,-12,-7,39
1461663709055405,-26,127,1,0,-3,11,-4,7
1461663709068453,37,127,-3,0,1,-6,-8,-39
1461663709068453,30,89,-3,2,3,9,10,-5
1461663709077433,-44,5,1,-1,-6,-29,-6,28
1461663709077433,-1,-21,-14,-15,-5,11,3,12
1461663709092445,37,-56,1,-3,6,-2,0,-24
1461663709092445,19,12,-17,-2,2,6,3,-8
1461663709094444,-36,86,7,12,1,0,-1,24
1461663709094444,-10,25,26,11,-5,-13,2,6
1461663709106500,20,-2,-18,-10,-4,7,1,-23
1461663709106500,7,-12,4,-10,-2,5,0,-7
1461663709115448,-25,-40,-6,3,-2,-15,-3,19
1461663709115448,-4,-62,-8,-4,-2,13,4,6
1461663709128456,11,-83,3,-1,-1,4,-1,-17
1461663709128456,9,-80,20,11,6,4,4,-3
1461663709137495,-14,-21,-1,1,-1,-10,-5,15
1461663709137495,0,59,13,0,0,-11,-3,6
1461663709152541,0,63,-48,-11,-5,4,-12,-17
1461663709152541,13,85,-1,-4,-4,7,4,-4
1461663709154554,-16,37,-15,-6,-2,0,-1,11
1461663709154554,-6,37,0,3,0,5,4,4
1461663709166591,23,30,21,5,1,3,1,-5
1461663709166591,1,-40,-24,-3,-3,0,-1,-7
1461663709175538,-12,21,-4,-5,-3,1,-1,5
1461663709175538,-5,-14,0,-1,-3,3,0,3
1461663709189607,15,6,-1,6,1,-8,0,-6
1461663709189607,4,-12,-7,-8,-6,-4,-2,-5
1461663709196554,-15,0,-18,-9,-3,-1,-2,2
1461663709196554,-3,24,6,1,3,-2,-1,3
1461663709212623,12,33,3,9,7,2,0,-3
1461663709212623,9,37,22,12,4,4,0,-3
1461663709214596,-8,25,6,1,-1,-6,0,0
1461663709214596,2,-14,-6,0,-4,-3,-1,4
1461663709226603,-5,-9,-3,-6,-5,2,-1,-4
1461663709226603,11,-14,-2,-1,-2,-3,-3,-3
1461663709235597,-10,-1,16,0,-2,0,-2,-2
1461663709235597,-9,14,-5,-3,-1,-2,-1,-1
1461663709249621,13,-36,1,0,-2,1,-3,-1
1461663709249621,-4,-21,-9,-7,-4,-3,-3,-4
1461663709256613,-8,-3,4,0,0,8,-2,0
1461663709256613,0,-18,0,0,1,-7,-4,0
1461663709272667,12,4,5,2,1,8,0,1
1461663709272667,3,-22,2,0,-2,-12,-2,-3
1461663709274640,-11,-25,-4,-8,-2,19,3,-3
1461663709274640,-6,-9,-4,7,4,-1,2,4
1461663709286619,6,0,-3,0,2,-5,-3,0
1461663709286619,3,5,-4,-4,-8,-2,1,-3
1461663709295625,-7,10,11,7,7,-4,-3,-3
1461663709295625,-4,-19,-6,1,5,1,0,0
1461663709309693,5,9,-3,2,2,0,0,2
1461663709309693,2,-6,7,8,3,3,1,-1
1461663709316699,-5,1,-10,1,-4,-9,-5,-4
1461663709316699,-10,-24,-5,-2,-5,2,-1,-1
1461663709332666,1,-15,-10,-6,-2,-2,1,-1
1461663709332666,2,-1,1,-10,-4,1,-1,-4
1461663709334666,-5,4,4,1,-3,-7,-1,-3
1461663709334666,1,8,-4,-4,0,0,-1,4
1461663709346662,9,-2,8,2,1,1,2,2
1461663709346662,-8,-21,-9,-3,-1,0,-1,-5
1461663709355683,-3,-6,0,-2,-2,-2,-2,-2
1461663709355683,0,-9,-1,0,-2,-1,-1,3
1461663709369678,2,-6,-4,-6,-1,-2,1,0
1461663709369678,2,5,4,8,3,2,-2,-1
1461663709377687,-5,6,-4,-5,-4,-4,-2,-1
1461663709377687,-1,-4,-2,-11,-8,-2,-1,1
1461663709392709,1,-4,0,5,2,0,-1,-1
1461663709392709,2,1,4,4,2,1,0,-4
1461663709394709,-1,13,-5,-3,-1,-4,-1,-1
1461663709394709,-4,-10,-2,-9,-9,-4,-3,1
1461663709406760,-2,0,-10,-5,-3,-2,-2,-3
1461663709406760,2,-1,-4,-3,1,-1,0,-4
1461663709415762,-6,-6,1,0,1,-2,-1,-1
1461663709415762,2,2,5,4,2,2,2,3
1461663709429781,3,-4,-2,-6,-5,-3,-2,1
1461663709429781,-6,-11,-11,-9,-6,1,-3,-5
1461663709443779,-7,-8,-2,0,0,-2,-2,-3
1461663709443779,-1,-4,-2,-3,1,0,-1,2
1461663709452845,3,2,3,2,-1,-1,0,0
1461663709452845,0,4,3,1,2,-1,-2,-3
1461663709454849,-4,-3,-2,-4,-4,-3,-2,-2
1461663709454849,-3,1,-4,-4,0,-2,0,2
1461663709466859,0,0,7,9,0,1,1,0
1461663709466859,3,2,-1,-8,-4,-2,-1,-2
1461663709475805,-5,-4,0,2,3,-2,-1,0
1461663709475805,-2,6,1,-3,1,0,0,3
1461663709489814,1,-7,-5,1,-1,0,-1,-1
1461663709489814,2,3,-7,-22,-10,-2,-2,-3
1461663709496842,-5,-14,-3,18,6,-1,-2,-1
1461663709496842,-6,-6,1,5,3,0,1,1
1461663709512848,3,10,-4,-16,-6,-1,0,-1
1461663709512848,3,1,10,24,8,1,-2,-3
1461663709514829,-5,-2,3,-1,-6,-4,-3,2
1461663709514829,8,3,-7,-2,-3,-3,-4,0
1461663709526851,6,11,4,-2,2,-1,3,-2
1461663709526851,-4,-9,-5,-4,-3,1,0,-3
1461663709534843,1,2,-5,-9,-3,-1,-1,2
1461663709534843,-2,-6,1,4,0,1,-1,-1
1461663709548870,4,-2,1,-2,-1,0,-1,-3
1461663709548870,-1,2,0,0,0,-4,0,-3
1461663709557859,-4,-8,2,0,0,-4,-1,1
1461663709557859,-1,5,-3,-7,-3,-3,0,2
1461663709571887,-1,0,4,7,3,0,0,-1
1461663709571887,-2,-5,-6,-2,-1,2,-1,-5
1461663709578874,-5,1,0,-6,-3,-1,-1,0
1461663709578874,-3,-1,0,-4,-1,-1,1,2
1461663709586881,0,-3,3,0,-1,-3,0,-2
1461663709586881,-1,-8,-3,2,0,0,-1,-4
1461663709594898,-3,-1,-3,-3,-5,-2,-1,1
1461663709594898,-1,0,-4,-12,-7,-2,-3,0
1461663709608910,3,-3,9,22,8,3,-1,-2
1461663709608910,2,-8,-10,-5,1,0,-1,-2
1461663709617920,-3,13,6,0,0,-1,0,0
1461663709617920,0,-2,-2,0,1,0,0,1
1461663709631913,-5,-9,0,-6,-6,-2,-3,-4
1461663709631913,6,6,1,-4,-4,-4,-3,-4
1461663709638917,3,-6,-3,1,3,0,0,2
1461663709638917,-5,-11,-2,4,0,1,0,1
1461663709654957,1,1,-2,-4,-3,0,-2,-3
1461663709654957,1,2,0,1,-2,-2,-2,-3
1461663709656959,1,1,-5,-7,-3,-3,0,2
1461663709656959,4,15,8,2,0,0,-1,1
1461663709668968,-9,-28,-11,-8,-2,-3,-1,-3
1461663709668968,-2,0,-1,0,0,-1,0,-3
1461663709677945,-5,-5,-3,-2,-3,-2,-1,0
1461663709677945,2,0,3,-1,1,1,1,1
1461663709691955,0,5,-8,-5,-2,0,0,0
1461663709691955,-1,2,3,-2,-3,-4,-2,-4
1461663709698980,-3,-6,6,14,6,1,-1,1
1461663709698980,-4,-5,-1,4,3,0,0,0
1461663709715010,2,10,0,-5,-1,0,-2,-2
1461663709715010,1,5,-4,-4,-2,-1,1,-2
1461663709721014,-3,-3,-4,-7,-4,-2,-2,1
1461663709721014,-3,4,1,-11,-4,-4,-2,0
1461663709728998,3,0,4,11,3,0,1,-2
1461663709728998,-2,-4,-5,0,-1,-1,-2,-3
1461663709737988,-3,-6,-4,-5,-5,-3,-2,2
1461663709737988,0,2,1,1,0,-3,0,1
1461663709752037,0,-2,-9,-8,-2,-2,-1,-1
1461663709752037,-1,-4,-1,6,2,-1,-2,-3
1461663709759016,-1,4,-3,-5,-1,-1,-2,2
1461663709759016,1,-4,-4,4,0,0,-1,0
1461663709775030,-1,-1,0,-3,0,0,-3,-3
1461663709775030,0,-4,-1,-5,-3,-2,-2,-2
1461663709777014,-5,-4,-2,-1,-3,-1,-3,1
1461663709777014,0,-2,-1,1,-1,-1,0,1
1461663709789081,-3,-4,-2,-1,0,0,0,-3
1461663709789081,-2,0,0,-3,-1,-2,-1,-3
1461663709805094,-3,4,2,0,-1,-3,-3,0
1461663709805094,-8,-6,-6,-1,1,0,-2,-2
1461663709812098,5,-4,0,5,2,0,0,-1
1461663709812098,-3,-2,3,3,0,-1,-1,-3
1461663709819103,-2,-3,-5,-6,-5,-2,-1,1
1461663709819103,0,0,-2,3,1,-2,-2,1
1461663709835074,-1,-4,3,-3,-2,0,1,-2
1461663709835074,-2,-1,2,6,1,2,-1,-3
1461663709837075,-4,-5,0,-1,0,0,1,0
1461663709837075,-1,2,2,2,0,1,1,0
1461663709849085,1,-2,-5,-5,-2,-3,-1,-3
1461663709849085,-1,-2,0,-3,-3,-3,-2,-2
1461663709858077,0,6,0,0,-1,-1,-1,2
1461663709858077,0,-7,-1,-1,1,0,0,-1
1461663709872149,-1,3,2,-1,0,0,0,-3
1461663709872149,-2,-8,-2,-2,-2,0,-2,-2
1461663709879111,-3,-2,-4,-5,-3,-2,-4,0
1461663709879111,-2,-1,0,0,-2,-3,-4,0
1461663709895119,5,3,2,2,2,0,1,-1
1461663709895119,-2,5,0,-1,-2,0,-1,-1
1461663709897124,-8,-18,-15,-7,-1,-1,-1,0
1461663709897124,0,7,3,0,-1,0,0,0
1461663709909111,1,-2,-3,1,-1,-1,0,-4
1461663709909111,0,1,0,-9,-5,-3,0,-1
1461663709918127,1,4,-4,-12,-3,0,-1,1
1461663709918127,6,3,14,22,9,3,0,1
1461663709932165,-4,-3,-2,-10,-4,-2,-1,-3
1461663709932165,-2,-6,-10,0,-1,-2,-1,-2
1461663709946173,-1,3,-1,0,0,-1,0,2
1461663709946173,-3,-5,-7,-8,-6,-1,-2,0
1461663709955179,4,4,2,-4,-4,-1,-1,-2
1461663709955179,0,-3,1,-2,-2,-2,-3,-4
1461663709957156,-3,-1,0,-1,-1,0,-1,1
1461663709957156,0,3,0,-2,0,-1,1,-1
1461663709969190,1,3,0,5,1,-1,-1,-1
1461663709969190,-2,-8,-3,-2,-3,-1,-1,-2
1461663709978169,-1,14,4,5,1,0,0,0
1461663709978169,-6,-21,-10,-2,-2,0,-1,-2
1461663709992167,-3,-1,-4,-3,-3,0,-1,-3
1461663709992167,-2,-1,-2,-2,-1,-1,0,-3
1461663709999184,2,-4,-3,0,-2,-2,-1,4
1461663709999184,0,4,1,-1,-2,-2,0,-1
1461663710015243,0,-1,-2,-1,0,-1,0,-3
1461663710015243,1,-5,-5,-8,-3,-3,-2,-3
1461663710017216,-2,-1,1,3,-1,-4,-3,1
1461663710017216,-1,1,-1,-3,0,1,0,0
1461663710029205,2,1,4,13,4,1,0,-3
1461663710029205,5,3,-4,-4,-1,0,0,-3
1461663710038202,-12,-12,3,1,0,1,0,1
1461663710038202,-3,2,-2,-2,-3,-2,-2,-1
1461663710052211,0,-4,-4,-5,-2,-2,-1,-2
1461663710052211,1,0,-2,-1,-2,-1,-2,-1
1461663710059229,1,0,-4,-2,-1,-2,0,3
1461663710059229,1,3,0,-2,-1,0,1,0
1461663710083234,2,8,4,3,2,0,-1,-1
1461663710083234,-1,-2,3,2,1,-2,-4,-1
1461663710084244,2,1,-6,-5,-1,-2,0,2
1461663710084244,-2,1,3,-3,-2,-1,-2,0
1461663710089295,2,3,0,3,2,0,0,-1
1461663710089295,0,-4,-1,3,0,0,0,-1
1461663710098242,-6,-5,-3,0,-1,-1,0,-1
1461663710098242,4,3,1,0,1,-3,-1,-2
1461663710112311,-2,-3,-2,-8,-5,-2,1,-3
1461663710112311,-2,-2,0,-3,-3,-2,-1,-1
1461663710119315,2,4,1,1,0,1,1,2
1461663710119315,0,6,-2,0,0,1,1,0
1461663710135297,-7,-9,-4,-6,-2,0,-1,-3
1461663710135297,-3,0,-1,0,-1,0,-1,-3
1461663710137278,-2,-1,-1,-3,-2,0,-2,1
1461663710137278,-2,-7,-1,5,2,-1,-1,0
1461663710149307,4,3,0,-2,-2,-1,0,-2
1461663710149307,-3,-4,-13,-17,-9,-5,-4,-3
1461663710164300,-4,-2,3,7,2,0,-3,2
1461663710164300,-1,-1,3,3,1,0,1,1
1461663710172354,1,-1,-1,-2,-1,-2,-1,-2
1461663710172354,0,0,-3,9,2,-1,0,-1
1461663710179299,-2,-1,-2,-12,-6,-3,-1,1
1461663710179299,-2,-5,-2,9,4,1,-1,-1
1461663710195310,2,8,1,-1,-1,-1,-1,-1
1461663710195310,-1,-8,-4,-3,-2,-2,-2,-2
1461663710197311,0,5,-2,-2,2,1,-1,2
1461663710197311,3,3,2,-4,-3,-1,-1,-1
1461663710209337,-5,-10,-4,-3,-3,-1,-2,-3
1461663710209337,-1,6,4,2,0,-1,-1,-1
1461663710218390,-2,-7,-2,2,-1,-1,2,0
1461663710218390,-3,-3,-5,-5,-3,1,-1,-2
1461663710232336,2,3,2,0,-1,-1,-2,-1
1461663710232336,-3,-5,0,-1,-1,-2,-2,-1
1461663710239344,-6,-3,-1,4,-1,-2,-2,0
1461663710239344,-1,-1,-1,-2,1,-1,-2,-1
1461663710255354,1,0,4,0,0,0,0,-2
1461663710255354,-2,1,-4,-4,1,-1,1,0
1461663710257354,-2,3,-1,-3,-3,-3,-2,0
1461663710257354,-1,4,11,7,2,-2,1,-2
1461663710277368,2,-5,-4,-3,0,-1,-1,1
1461663710277368,-2,7,1,-4,-3,0,-1,0
1461663710279369,-2,-8,-5,3,4,1,-1,2
1461663710279369,-4,1,-5,-9,-4,-1,-1,-1
1461663710292380,-1,-7,0,-1,-1,-1,-1,-3
1461663710292380,-1,0,7,9,2,-2,-2,-3
1461663710299383,-2,2,0,-4,-2,-1,-1,1
1461663710299383,-2,-3,-3,-5,-3,-1,0,-1
1461663710315454,1,-3,-1,0,1,-1,0,-2
1461663710315454,0,1,-4,-4,-5,-2,-1,-1
1461663710317413,-3,1,2,2,3,0,1,2
1461663710317413,-2,-8,-3,0,-1,-1,-3,-1
1461663710329405,0,5,-4,-3,-3,-1,-1,-2
1461663710329405,-1,-6,-4,-3,-4,-3,-2,-3
1461663710338431,-2,-2,3,2,-2,1,0,2
1461663710338431,-2,0,-5,-8,-3,-2,0,0
1461663710352479,1,-3,0,7,1,-1,0,-1
1461663710352479,2,4,-2,-2,1,0,1,-1
1461663710358453,-1,-1,0,-5,-4,-3,0,0
1461663710358453,-2,-3,2,2,-2,0,-1,-4
1461663710375438,1,-1,-4,2,2,1,-1,-2
1461663710375438,-2,-8,3,2,0,-2,-2,-1
1461663710382442,1,1,-2,-3,1,0,-2,1
1461663710382442,0,1,-4,-7,-4,-1,1,-1
1461663710389463,-2,3,3,-2,-3,0,-2,-4
1461663710389463,-2,-9,-7,-6,-3,-1,-2,0
1461663710397453,3,7,3,-3,-3,1,0,3
1461663710397453,-5,-1,-4,5,2,-1,-1,0
1461663710412524,-3,-1,-3,-4,-2,-1,0,-3
1461663710412524,-2,-2,-2,-3,-2,-2,-2,0
1461663710418527,-1,2,1,1,1,-1,0,0
1461663710418527,2,1,2,2,0,0,-2,-1
1461663710435539,1,1,-1,-1,-1,0,0,0
1461663710435539,-1,-1,-3,-6,-6,-3,-2,0
1461663710437483,-6,-11,-2,4,3,0,-1,0
1461663710437483,0,5,2,2,1,0,-1,-1
1461663710448549,3,-2,2,-1,1,-1,-1,-3
1461663710448549,0,-1,-1,2,0,-1,-1,-3
1461663710458505,-4,-3,-3,-4,-4,-2,-2,1
1461663710458505,-4,-9,-9,-15,-1,0,-1,0
1461663710472507,1,-2,10,17,2,1,-1,-3
1461663710472507,2,1,-1,0,0,0,-1,-1
1461663710479517,-2,-2,-2,1,-2,-1,-1,-1
1461663710479517,-2,0,1,-8,-4,-3,0,-1
1461663710494523,1,-1,-11,-10,-2,0,-1,-2
1461663710494523,-1,-2,3,4,1,-1,1,0
1461663710501558,-1,1,0,4,1,0,-1,1
1461663710501558,1,1,1,2,-1,0,-2,0
1461663710508534,0,-2,-3,-4,-3,-2,-1,-3
1461663710508534,-2,4,1,-2,-4,0,-2,-3
1461663710517540,-10,-21,-8,-4,-1,2,-1,-1
1461663710517540,1,4,5,4,2,1,1,-1
1461663710532551,3,1,3,0,0,-1,-1,-2
1461663710532551,-1,4,-4,4,1,-2,-2,-1
1461663710538555,-1,0,-4,-5,-4,-2,0,2
1461663710538555,-2,-2,1,11,3,1,1,1
1461663710554565,0,0,-3,-3,-1,-1,-1,-1
1461663710554565,1,2,4,-3,-4,-3,-3,-1
1461663710561581,5,2,-5,-6,1,-2,-1,3
1461663710561581,-5,-2,-7,-8,-2,1,0,-3
1461663710568586,1,3,7,17,5,1,0,-1
1461663710568586,-3,-4,-1,-1,0,-1,-2,-2
1461663710577594,-1,1,4,-2,-1,-1,-2,0
1461663710577594,4,3,-1,-6,-3,-2,-2,0
1461663710592591,-2,-3,-8,-9,-3,-3,-1,-2
1461663710592591,-3,-1,-2,0,-2,-2,-1,-2
1461663710598595,1,4,4,8,2,1,1,3
1461663710598595,-6,-2,-3,-4,-1,0,0,-1
1461663710614609,-2,-3,-3,-7,-3,-1,0,-4
1461663710614609,-1,-2,1,8,3,-2,0,-1
1461663710621674,1,14,3,-2,0,-2,-2,2
1461663710621674,1,-3,-4,2,-3,-2,1,-1
1461663710628618,-5,-13,-4,-4,-3,-1,-1,-1
1461663710628618,-9,-10,-6,-5,0,-1,0,-1
1461663710637624,0,5,4,1,-1,-2,-1,1
1461663710637624,1,-2,-2,-1,-2,-2,-1,0
1461663710652652,4,1,-5,-5,-1,-2,-2,-4
1461663710652652,-9,-14,-3,-6,-4,-3,-2,-3
1461663710658639,-2,-2,-2,1,0,1,2,0
1461663710658639,5,4,6,2,2,0,0,2
1461663710674708,-2,5,1,-3,-1,-1,0,-2
1461663710674708,-1,5,-4,-4,-4,0,-1,-3
1461663710681654,-2,-2,-7,-15,-3,-2,-1,-1
1461663710681654,1,-4,9,19,5,2,1,0
1461663710697677,6,8,4,9,2,0,0,0
1461663710697677,-2,4,0,4,-1,0,-1,-1
1461663710699679,-3,-5,-5,-2,-2,-1,0,1
1461663710699679,2,5,-3,-8,1,0,0,0
1461663710712677,1,-4,-1,0,-3,-3,-2,-1
1461663710712677,-2,-8,2,4,3,-2,-3,0
1461663710718740,2,7,-3,3,1,-2,0,1
1461663710718740,-5,-8,-2,-1,0,-1,-1,0
1461663710734721,2,2,0,-7,-2,2,1,-1
1461663710734721,2,-2,-9,-14,-8,-2,-1,-2
1461663710741726,-4,-4,17,27,10,2,-1,-2
1461663710741726,6,2,-1,3,2,0,-1,0
1461663710757724,-6,-2,-1,0,-1,0,-1,-1
1461663710757724,1,-3,-3,-8,-4,-2,-1,-1
1461663710759726,-3,-5,-6,-11,-5,-1,-1,1
1461663710759726,-4,-2,-2,-2,-2,-1,-3,-3
1461663710771779,4,3,-1,-2,1,-2,-4,-4
1461663710771779,-4,-2,-5,-4,-3,-1,-2,-3
1461663710778723,-7,-1,-7,-11,-4,-2,0,0
1461663710778723,0,-3,7,16,3,0,-2,1
1461663710794750,3,-2,-5,-7,-3,-1,0,-2
1461663710794750,2,8,8,3,1,-2,0,-4
1461663710801755,-1,1,-4,-6,-2,-1,0,1
1461663710801755,1,3,-1,7,7,2,2,4
1461663710817781,2,1,-2,-1,1,-1,-1,-3
1461663710817781,-7,-10,-4,-6,-1,-2,-2,-5
1461663710819810,-2,-6,3,5,-2,-1,-3,-2
1461663710819810,0,4,4,-7,-4,-3,-1,2
1461663710832760,-1,-6,-4,1,0,0,0,-2
1461663710832760,-2,2,-1,-4,-2,-3,-2,-4
1461663710838825,-5,-5,-1,-2,-1,1,2,1
1461663710838825,1,-2,-2,-5,-3,0,0,2
1461663710854835,-8,-12,-5,0,1,-3,-2,-5
1461663710854835,0,3,-2,0,-1,2,-1,-3
1461663710861841,0,0,0,3,1,-2,-2,2
1461663710861841,0,-4,-4,-3,-1,-2,-1,1
1461663710878796,-1,-1,-1,-6,-4,-1,-2,-3
1461663710878796,-1,-5,-4,-2,0,0,0,-3
1461663710879797,0,1,3,7,4,0,-1,3
1461663710879797,2,6,-2,-5,-1,-1,-1,1
1461663710891805,-1,0,-1,-2,-4,-2,-2,-3
1461663710891805,-2,-3,-2,-1,-1,-1,-2,-2
1461663710898837,-2,-5,0,1,3,2,0,1
1461663710898837,0,5,0,-4,-4,-1,-1,-2
1461663710914838,-1,-2,-3,-5,1,0,1,-3
