timestamp,emg1,emg2,emg3,emg4,emg5,emg6,emg7,emg8
1461662139628138,-3,-2,-6,-8,-4,0,-1,-3
1461662139628138,1,-5,-14,-1,-3,-1,-1,-1
1461662139634147,-3,1,-9,-5,-1,-1,0,-2
1461662139634147,1,6,6,-2,-1,-3,-3,-3
1461662139650155,2,1,3,-2,-2,-1,-2,0
1461662139650155,2,2,8,2,-2,0,-1,1
1461662139658172,1,-1,-7,-7,-4,-2,-2,-1
1461662139658172,-1,-1,1,3,0,1,0,0
1461662139673169,0,1,-4,2,0,-1,0,0
1461662139673169,-1,0,5,-2,-1,-1,1,0
1461662139675171,-1,0,4,2,1,-1,1,0
1461662139675171,1,2,8,-2,-3,-3,0,-2
1461662139688181,-4,-8,-6,-4,-1,-2,-2,-2
1461662139688181,2,7,12,6,1,0,-1,0
1461662139694848,-1,2,1,-4,0,-1,-1,-1
1461662139694848,-3,-15,-14,-1,-2,-1,0,0
1461662139710359,-2,1,-1,-5,-1,-2,-4,-4
1461662139710359,-3,-6,0,-2,-1,-1,0,-2
1461662139717364,5,15,12,4,0,0,0,1
1461662139717364,-1,-2,2,-3,-1,-1,-2,-1
1461662139733876,-6,-8,-2,-3,-2,-1,-2,-3
1461662139733876,-1,3,4,-2,-2,-3,-2,-2
1461662139735391,-1,-8,-6,2,0,-1,0,1
1461662139735391,-1,6,-1,3,2,1,1,-1
1461662139748425,-1,-2,-5,-8,-5,-2,-3,-2
1461662139748425,0,0,-8,1,-2,-1,-3,-1
1461662139754892,2,4,11,2,2,-1,0,0
1461662139754892,-2,-9,-16,-3,-2,0,-1,-2
1461662139770416,-3,-4,2,-6,-3,-2,-1,-3
1461662139770416,0,1,-7,-3,-4,-2,0,-2
1461662139777406,-1,-3,2,5,3,0,0,-1
1461662139777406,1,7,19,0,1,0,-1,2
1461662139794012,-2,-4,-23,-1,-2,-2,-3,-3
1461662139794012,-5,-6,-4,-2,-1,-1,0,-1
1461662139795532,3,2,3,-2,-3,0,0,1
1461662139795532,0,5,8,-2,-1,-1,1,3
1461662139808080,-3,-7,-2,1,-2,-1,0,-4
1461662139808080,-3,-1,-1,1,1,-2,0,0
1461662139815044,0,-2,-6,-2,-2,-1,-1,-1
1461662139815044,2,5,10,3,1,0,-1,0
1461662139830594,-1,-4,-14,-3,-4,-2,-3,-2
1461662139830594,0,1,-1,-2,2,-2,-2,-2
1461662139837637,-4,-2,1,-1,0,-1,-2,-1
1461662139837637,-2,-1,-7,0,-3,-2,-1,-1
1461662139852704,-2,2,10,2,-1,-2,-1,-1
1461662139852704,0,-8,-5,-5,-1,-1,-1,-1
1461662139861152,-4,-4,-2,-9,-6,-2,-1,-1
1461662139861152,3,7,13,7,2,-1,1,1
1461662139868223,-3,-9,-16,0,2,1,-1,-3
1461662139868223,-4,-4,-1,3,-1,0,-2,-2
1461662139874660,0,4,8,-1,0,0,1,0
1461662139874660,0,-4,-8,-6,-3,-1,-1,0
1461662139890702,2,8,7,0,-2,-1,0,-1
1461662139890702,-2,0,3,-2,-1,-1,-1,0
1461662139898207,0,-5,-3,0,0,-1,-2,-1
1461662139898207,2,1,3,-4,-1,0,1,-1
1461662139913690,-4,-5,-3,1,0,-1,-2,-2
1461662139913690,1,-1,-1,-3,-2,-3,-3,-1
1461662139915191,2,1,-3,0,0,1,0,1
1461662139915191,3,7,2,0,-2,-1,-1,-2
1461662139928317,-7,-11,4,-5,-3,-2,-2,-3
1461662139928317,-1,-2,11,1,-2,0,0,-2
1461662139934321,-3,-1,-16,-2,0,-2,0,0
1461662139934321,-1,-2,-9,-1,-1,-1,-2,-2
1461662139950333,0,-3,-19,-3,0,-2,0,0
1461662139950333,1,1,20,-6,-4,-2,-2,-1
1461662139957335,2,3,-6,12,4,2,1,0
1461662139957335,0,6,9,2,2,1,-1,-1
1461662139973347,-4,-7,-5,-5,-1,-1,-2,-3
1461662139973347,-2,-4,1,3,1,-1,0,0
1461662139975348,0,-5,-6,-6,-5,-1,-2,0
1461662139975348,-4,-8,-10,-7,-4,-1,-2,0
1461662139987356,5,14,32,3,-2,-1,0,1
1461662139987356,-4,-16,-43,0,1,-2,-1,-2
1461662139994420,1,4,3,-1,-1,0,1,0
1461662139994420,1,-1,0,1,2,-1,-1,0
1461662140010373,-4,-2,-1,-6,-3,-1,-2,-3
1461662140010373,0,7,4,0,0,0,0,0
1461662140017378,-2,-5,-3,-1,0,-2,-1,-1
1461662140017378,-2,-1,11,2,1,-1,0,-2
1461662140033390,-3,-3,-13,0,0,-1,-1,-1
1461662140033390,2,1,4,-1,0,1,0,1
1461662140035390,-6,-11,-5,-4,-2,-1,-2,-4
1461662140035390,1,7,5,-5,-4,-2,-1,-2
1461662140047401,2,0,-1,6,3,0,0,0
1461662140047401,3,8,-9,0,-1,-2,-1,-1
1461662140054412,-1,-8,-6,-7,-5,-1,-3,-1
1461662140054412,-3,-5,-3,-3,-1,-2,-2,-1
1461662140070415,1,4,-3,-2,-4,-3,0,0
1461662140070415,0,0,-2,1,1,0,-1,0
1461662140077420,1,3,14,6,1,1,2,0
1461662140077420,-1,-1,-6,-2,-2,-2,-2,-2
1461662140093431,-1,-1,-1,4,2,1,-1,-1
1461662140093431,1,3,0,-3,-1,0,0,0
1461662140095435,-2,-2,4,0,-2,-2,0,-1
1461662140095435,-4,-8,-6,0,-2,0,0,-1
1461662140107442,-3,-2,-1,-4,0,-1,0,-1
1461662140107442,1,3,8,5,-1,0,-2,-1
1461662140116447,2,4,-11,0,1,-1,-2,1
1461662140116447,-3,-8,-6,-3,-2,-3,-1,-1
1461662140130459,-8,-7,7,-5,-1,-1,-1,-3
1461662140130459,-3,-7,-25,-2,-2,-2,-2,-3
1461662140138497,-1,5,20,0,0,-1,-1,-1
1461662140138497,-1,-6,-24,-2,0,-1,0,-3
1461662140153524,1,4,4,-2,-3,-2,-2,0
1461662140153524,-5,-8,15,-2,-1,1,-2,-3
1461662140155546,3,7,-2,-1,-1,-2,-2,0
1461662140155546,-3,-2,7,0,-2,0,-3,-2
1461662140167575,0,-5,-14,1,0,0,-2,-3
1461662140167575,-4,-3,-1,-2,-2,-1,-1,-2
1461662140183543,2,-1,-5,-3,-2,0,0,-1
1461662140183543,2,0,1,4,3,-1,0,-1
1461662140190546,3,1,-5,0,-1,-2,-2,-1
1461662140190546,0,3,-2,-3,-2,-2,-1,0
1461662140197604,-3,-2,9,-1,0,-2,0,-1
1461662140197604,-2,-10,-30,-4,0,-1,-1,0
1461662140220556,2,8,17,3,0,0,-1,-1
1461662140220556,-2,-2,-4,-6,-2,-3,-2,-2
1461662140222556,0,6,1,-2,-3,-1,-1,1
1461662140222556,-1,-4,6,0,-2,-2,-1,1
1461662140227572,-2,2,12,0,-3,-2,-1,-2
1461662140227572,1,-5,-30,-1,0,1,1,0
1461662140243570,1,2,18,-1,-2,-1,-1,-2
1461662140243570,-5,-2,0,-5,-4,-2,-3,-2
1461662140250635,-1,-2,-1,3,0,-2,-2,-2
1461662140250635,2,1,-9,1,-1,-1,0,0
1461662140257615,-1,0,-9,0,1,0,0,0
1461662140257615,-3,-4,0,-4,-1,-2,-1,-2
1461662140273609,-1,-2,-5,-5,-1,-1,-1,0
1461662140273609,-2,-1,4,0,0,0,-1,0
1461662140274605,-1,-4,-6,-2,-2,-1,-1,1
1461662140274605,1,9,14,0,-2,1,-3,0
1461662140287601,-1,-10,-20,-3,1,1,1,-1
1461662140287601,-2,-2,3,4,0,-1,0,1
1461662140296640,0,2,8,10,5,1,1,0
1461662140296640,0,-2,1,-1,-2,-2,0,-1
1461662140310677,-4,-1,2,-2,-2,-2,-3,1
1461662140310677,0,0,8,-6,-3,0,-1,0
1461662140317640,-3,-8,-16,-6,-3,-1,-1,-2
1461662140317640,2,7,9,3,0,0,-1,0
1461662140333692,4,9,3,6,3,-1,0,-1
1461662140333692,-5,0,16,-4,-1,-2,-1,-2
1461662140335655,-5,-13,-18,-5,-2,-2,-2,-2
1461662140335655,2,-3,-10,-2,0,0,0,0
1461662140347658,-4,-6,-9,-7,-5,-2,-2,-2
1461662140347658,3,11,16,4,-1,-1,-1,2
1461662140356666,3,4,11,1,1,-1,-1,0
1461662140356666,-7,-11,-11,-4,-1,-3,-2,-3
1461662140369718,-1,4,11,0,-2,1,-2,-1
1461662140369718,-2,-5,-12,-3,-2,-1,-2,-3
1461662140379683,0,5,-14,2,1,0,1,0
1461662140379683,0,-6,3,-3,-3,0,-2,-2
1461662140392679,0,1,6,-1,-1,-2,-2,0
1461662140392679,1,-1,-5,0,1,0,0,-1
1461662140399740,0,-3,-2,-5,-2,-1,-3,-1
1461662140399740,2,10,10,4,3,2,1,-1
1461662140407704,-3,-5,6,-6,-4,-1,0,-2
1461662140407704,-2,-9,-15,0,-1,0,-2,-2
1461662140415692,-1,4,2,0,-1,-2,-2,0
1461662140415692,-2,-8,-17,-2,-2,-3,-2,-3
1461662140430766,0,6,24,4,2,0,-1,-1
1461662140430766,-4,-7,-20,1,2,-1,-1,-1
1461662140436766,0,0,7,1,-2,0,0,0
1461662140436766,0,2,2,-5,-3,-2,0,0
1461662140460783,-1,-4,-13,8,4,0,0,-4
1461662140460783,2,6,17,-1,-2,-1,-1,-1
1461662140462744,-2,-6,-10,-1,0,0,-1,-3
1461662140462744,0,4,13,-2,-1,1,-1,-1
1461662140467762,-4,-7,-21,-8,-2,-2,-1,0
1461662140467762,-2,1,6,-2,-2,-2,-1,-2
1461662140476737,0,0,-5,0,1,-1,-1,0
1461662140476737,-2,1,-7,0,-1,0,0,0
1461662140490776,0,1,1,-6,-4,-2,-1,0
1461662140490776,-2,-5,1,3,1,0,-1,-1
1461662140496767,1,0,-3,1,-1,0,1,-1
1461662140496767,-2,-2,-8,-2,0,-1,-1,-2
1461662140512823,-1,-3,-10,4,2,0,0,0
1461662140512823,-2,-3,0,-8,-6,-3,-2,-1
1461662140520786,-1,-3,-7,-1,1,0,-1,-1
1461662140520786,0,0,1,-2,-1,-2,-3,-3
1461662140526789,-2,-3,-1,-1,-3,-1,0,-1
1461662140526789,0,0,2,-5,-3,0,-1,0
1461662140541799,-1,0,11,11,5,0,-1,-1
1461662140541799,-7,-7,-3,-3,-2,-3,-2,-3
1461662140550790,-2,1,-1,-3,-2,-2,-2,-1
1461662140550790,3,4,20,1,2,-2,-1,1
1461662140556792,-2,-5,-4,-7,-4,-1,-1,-2
1461662140556792,-1,-3,-5,2,1,-2,-2,-3
1461662140572807,-1,-3,-4,1,0,-1,-2,-1
1461662140572807,0,0,-3,0,1,1,1,1
1461662140579812,-2,0,0,-7,-3,-2,-2,-1
1461662140579812,-3,2,7,2,-2,-2,-3,-2
1461662140595832,-2,-2,-2,-2,-2,-1,-1,-1
1461662140595832,2,1,-6,3,0,0,1,-1
1461662140597833,0,-3,-4,-4,-4,-1,-1,1
1461662140597833,-1,2,0,-7,-3,-2,-2,0
1461662140609842,-2,-3,-3,1,0,0,-1,-2
1461662140609842,-3,-2,4,0,1,1,0,-2
1461662140616846,0,-2,-1,-1,-3,-1,-2,-1
1461662140616846,-2,-1,-3,2,1,0,-1,-1
1461662140632863,-2,0,-2,-7,-2,-2,-1,-2
1461662140632863,0,0,-7,-3,-2,-2,-1,-2
1461662140639850,0,1,9,0,-1,-1,2,0
1461662140639850,-1,-4,-8,0,-1,-2,0,-1
1461662140655862,-1,0,-3,-1,-1,-2,-2,0
1461662140655862,-4,-4,-6,-3,-4,-2,-2,-3
1461662140657863,1,2,5,-1,1,0,1,0
1461662140657863,1,-3,-1,1,-1,1,0,-1
1461662140669871,1,0,-5,-6,-1,-1,0,-3
1461662140669871,1,-1,-13,3,-1,-1,0,-1
1461662140676877,-1,5,18,-2,-2,-2,0,-1
1461662140676877,-2,0,5,-2,0,-1,-3,-1
1461662140692888,0,-3,-2,1,-1,-2,-2,-2
1461662140692888,-3,-2,6,2,-1,-1,-3,-2
1461662140699893,0,-2,-11,1,0,-1,-1,-2
1461662140699893,-1,-1,-7,-5,0,-1,1,0
1461662140715908,-1,0,-2,-3,-1,-1,-2,1
1461662140715908,-1,1,-3,0,-3,-2,-1,0
1461662140717909,-1,-2,-2,-2,-4,-1,-2,0
1461662140717909,-3,-1,1,-2,-2,-1,-1,-2
1461662140738920,-1,-2,-3,1,0,-1,-1,0
1461662140738920,0,3,3,0,-1,-1,-1,2
1461662140740921,0,1,2,0,-1,1,-1,1
1461662140740921,-2,-5,1,0,-1,-1,-2,-3
1461662140752971,-2,-6,-6,-1,-1,0,1,-1
1461662140752971,1,3,3,0,1,-1,0,-1
1461662140759976,-2,-2,-12,0,-1,-1,0,0
1461662140759976,-1,2,18,-4,-2,0,-1,-1
1461662140776949,2,2,5,3,0,1,0,0
1461662140776949,0,-7,-8,-6,-1,0,0,0
1461662140777949,-2,1,2,-1,1,-1,-1,-2
1461662140777949,-1,-1,-1,3,-3,-2,-2,-2
1461662140789958,0,3,1,0,1,-1,0,1
1461662140789958,2,6,5,-2,-2,-1,-1,0
1461662140796962,-2,-5,-15,-5,-1,1,0,-2
1461662140796962,-5,-12,-13,0,-2,-1,-2,0
1461662140820979,-3,-5,0,7,1,1,-1,-1
1461662140820979,-1,-2,-5,1,2,-1,-1,0
1461662140822980,-4,-9,-3,-1,-2,-2,-1,-2
1461662140822980,6,21,10,-1,-1,0,-1,1
1461662140836050,-1,-7,-3,-6,-2,-1,-2,-1
1461662140836050,-1,-3,-3,-2,-2,0,-2,-1
1461662140838007,-1,-2,1,-2,-1,0,-2,-2
1461662140838007,-4,-8,-6,-1,1,0,-1,-1
1461662140850016,0,3,-2,-1,-3,-3,-1,-1
1461662140850016,-1,-2,7,0,-3,-2,0,-1
1461662140857065,-2,0,4,4,4,0,-1,-2
1461662140857065,-2,-2,-10,-6,-2,-2,-1,1
1461662140873032,-1,1,3,-1,-3,-3,0,-1
1461662140873032,-2,-2,-5,2,4,2,0,-3
1461662140880037,-1,-1,2,4,-1,-1,1,1
1461662140880037,1,3,-13,1,-2,-1,-2,-2
1461662140895031,-4,-7,-8,-3,-2,0,-1,-1
1461662140895031,-2,-2,4,-15,-8,-1,-1,0
1461662140904037,1,-3,-4,8,2,0,0,-1
1461662140904037,1,-2,3,1,2,0,-2,-2
1461662140910102,-1,0,-9,-11,-4,-4,-3,-2
1461662140910102,-1,1,1,4,-4,-3,-1,-1
1461662140917108,-1,5,3,2,2,2,-2,-1
1461662140917108,-3,-6,-2,-2,-4,-3,0,-2
1461662140933074,-1,1,2,1,2,-1,-2,-1
1461662140933074,0,0,1,-5,-1,0,1,-1
1461662140940063,2,3,3,-6,-4,-3,-2,0
1461662140940063,-2,-2,-8,11,2,-1,0,-2
1461662140956091,3,1,4,-5,-1,-1,0,-1
1461662140956091,-1,2,4,5,1,0,-1,-1
1461662140958142,1,-1,-3,-5,-3,-1,-2,0
1461662140958142,-4,-5,-1,-4,-2,-1,-2,-3
1461662140970144,-1,1,6,-1,-1,-1,0,0
1461662140970144,0,-3,-9,0,0,-1,-1,0
1461662140985117,0,-1,-1,0,-2,-1,-2,-1
1461662140985117,0,1,5,2,2,1,0,1
1461662140993101,-2,0,-1,6,2,-1,0,-2
1461662140993101,-2,-1,7,-2,1,-1,-2,1
1461662141000138,-5,-4,-3,-11,-6,-1,0,-1
1461662141000138,-5,-3,-5,-16,-7,-3,-2,-4
1461662141024135,1,0,1,21,8,0,1,-1
1461662141024135,0,-2,0,9,4,0,1,1
1461662141025135,2,10,-1,-5,-3,-3,-1,0
1461662141025135,-4,-13,-1,-11,-8,-1,-1,-1
1461662141030185,-1,-5,1,-5,1,1,0,-1
1461662141030185,-1,-2,-2,4,0,0,0,-3
1461662141037132,0,-3,2,1,4,0,1,0
1461662141037132,1,6,-3,-2,-4,-2,-3,-1
1461662141053201,-1,3,0,-4,-4,-2,-2,-2
1461662141053201,-1,-3,-2,0,2,2,2,-1
1461662141060166,0,1,-3,-5,-4,-2,-2,-1
1461662141060166,-2,-3,-5,-8,0,-1,-2,-2
1461662141076171,-2,-1,-1,0,-7,-1,-2,0
1461662141076171,1,0,0,1,1,-2,-2,0
1461662141077172,-5,-5,2,11,1,-1,-1,-4
1461662141077172,-3,-4,-4,-7,-2,-1,-2,-2
1461662141098204,-3,-2,4,13,5,0,-1,-2
1461662141098204,-3,0,-3,-5,-4,-1,0,0
1461662141100206,3,1,-3,-5,-2,-2,-2,1
1461662141100206,1,0,3,-13,-6,-6,-3,0
1461662141113217,0,-4,1,25,11,4,3,2
1461662141113217,-2,-5,-4,5,3,0,0,-2
1461662141120216,2,8,6,-8,-1,-1,-5,-1
1461662141120216,-5,2,-6,4,-6,-4,-4,-4
1461662141136231,-2,-8,-6,-25,-10,-3,-1,-1
1461662141136231,-2,-5,-1,10,3,-1,0,-1
1461662141142235,1,-1,-4,-3,2,0,0,-1
1461662141142235,0,5,5,10,0,1,10,2
1461662141150213,4,4,-5,-10,-6,-4,-18,-1
1461662141150213,-3,-4,1,-3,-3,-3,-4,-8
1461662141158232,-4,-5,-4,-14,-10,-4,-2,-4
1461662141158232,0,-1,-5,15,15,9,14,3
1461662141181235,0,1,-9,-31,-5,-2,-15,-2
1461662141181235,-3,-1,4,8,-2,1,-10,-1
1461662141183237,6,0,1,31,12,3,2,5
1461662141183237,-1,-2,2,-10,-3,-1,3,1
1461662141196256,6,6,5,32,13,1,19,3
1461662141196256,-4,8,-5,-19,-8,-12,-16,-2
1461662141197259,-6,-17,-8,-8,-3,-4,9,-4
1461662141197259,7,14,5,-8,-7,-3,-4,5
1461662141218259,-12,-24,-11,-43,-11,-1,-14,-3
1461662141218259,-2,-4,-2,1,-6,5,19,-1
1461662141220274,3,15,8,-2,-14,-1,12,2
1461662141220274,-10,-45,-24,-8,-4,-6,-24,-7
1461662141241275,11,23,11,45,24,5,-19,-2
1461662141241275,10,18,-11,-49,-9,-3,-5,-4
1461662141247280,0,-7,5,18,0,4,7,2
1461662141247280,-3,15,0,13,3,13,69,6
1461662141256345,2,-3,-4,-37,-21,-8,-25,3
1461662141256345,-3,-17,-10,2,-1,4,-18,-9
1461662141257306,-9,1,-11,-100,-37,-19,6,2
1461662141257306,-21,-29,4,-9,2,-10,-46,-14
1461662141269354,13,13,12,120,33,-5,40,5
1461662141269354,3,24,13,10,-6,-11,-16,5
1461662141278329,10,33,0,18,7,10,3,-2
1461662141278329,4,9,20,-51,-28,-7,-13,-5
1461662141293316,-24,-27,-21,-5,-3,-13,-7,-6
1461662141293316,8,-14,-14,-33,1,12,16,4
1461662141299343,0,27,16,65,32,39,58,4
1461662141299343,12,37,15,-33,-9,-1,-35,-3
1461662141315393,-13,-30,-30,-15,-14,-35,-40,-8
1461662141315393,-5,22,17,-71,-49,-37,-35,-6
1461662141330340,1,-31,-27,77,42,-7,-18,-8
1461662141330340,-10,21,26,53,22,13,11,-6
1461662141331340,-3,-37,-4,-9,7,40,90,6
1461662141331340,12,55,11,-69,-19,7,-27,8
1461662141338344,-19,-87,-22,-22,-16,-8,7,-8
1461662141338344,-14,-6,6,81,22,10,38,15
1461662141353372,4,-42,-21,-24,2,-14,-74,-9
1461662141353372,-27,-42,-32,-3,-8,-23,13,-13
1461662141359420,-9,-50,-1,-46,-18,-23,-63,-1
1461662141359420,9,-11,6,18,2,-3,12,-3
1461662141375371,1,2,21,-44,-16,30,114,38
1461662141375371,16,-65,12,127,66,40,-59,-14
1461662141382376,10,54,10,-101,-41,-30,-24,-16
1461662141382376,-23,-81,-7,57,12,-35,-70,-11
1461662141389397,21,81,6,9,0,-6,18,8
1461662141389397,12,-64,-3,54,26,28,104,32
1461662141398405,-9,-4,10,41,8,20,-18,-5
1461662141398405,-13,-24,-14,-51,-15,6,8,-7
1461662141413398,-9,26,20,-14,-10,9,-26,-10
1461662141413398,7,26,-8,-13,-10,-31,7,4
1461662141419499,6,41,10,-32,-34,-27,-5,20
1461662141419499,4,-1,3,-22,4,-7,-59,-12
1461662141442453,-12,-1,-25,-25,3,-2,23,-16
1461662141442453,1,36,20,39,21,55,-10,2
1461662141450459,-2,-41,-10,30,28,35,74,-1
1461662141450459,-18,-24,-30,-20,-34,-37,-18,-2
1461662141457523,1,45,-22,-21,-27,-44,-87,-12
1461662141457523,10,116,3,-31,-23,-38,-43,-6
1461662141458468,-8,127,20,-3,3,12,6,-2
1461662141458468,8,48,-28,14,18,33,75,6
1461662141473475,-8,-24,38,-36,-20,10,45,1
1461662141473475,-14,-72,-34,-10,2,23,37,0
1461662141480481,21,-91,42,-36,-20,-25,-99,-19
1461662141480481,15,-101,12,58,32,14,84,21
1461662141494549,-50,-117,-33,16,-4,-10,-58,-15
1461662141494549,10,-36,6,3,-1,-11,-41,-10
1461662141502554,19,-62,-42,-9,6,24,36,-4
1461662141502554,11,-68,-2,-128,-54,-31,-13,18
1461662141517566,22,5,67,85,58,8,-38,12
1461662141517566,-50,32,-4,59,25,-12,-11,-10
1461662141518523,1,-16,11,7,4,0,24,7
1461662141518523,12,-60,11,-55,-17,37,31,-3
1461662141533520,19,26,-22,26,10,23,24,7
1461662141533520,1,71,27,-32,-15,-30,-29,0
1461662141547528,3,17,5,39,9,-17,-87,-10
1461662141547528,-8,-47,-45,16,6,-32,-23,-6
1461662141557552,7,50,-22,-103,-48,7,49,8
1461662141557552,15,74,-18,73,23,26,55,5
1461662141562551,-30,42,19,42,7,-9,12,7
1461662141562551,1,-46,-4,35,26,15,-34,-6
1461662141577566,-24,63,-9,-84,-47,-6,-11,-29
1461662141577566,-2,57,-18,-4,-3,-6,-18,-9
1461662141578549,39,11,-34,48,16,-9,45,30
1461662141578549,-16,-28,18,42,8,-4,-47,-5
1461662141593560,11,59,11,8,-1,-18,7,-4
1461662141593560,-15,51,7,-68,-23,20,34,11
1461662141599577,-22,-8,-41,-66,-41,-45,-29,-1
1461662141599577,20,-8,36,29,26,41,103,17
1461662141622593,31,43,24,-60,-13,31,-18,-14
1461662141622593,-33,37,-13,62,26,-22,-30,-6
1461662141623593,7,5,9,-17,-25,-69,-66,2
1461662141623593,-15,-3,-38,-44,-18,-23,-14,-16
1461662141637594,21,39,20,30,21,49,117,22
1461662141637594,-36,32,35,-49,1,25,-42,-28
1461662141638607,26,1,-73,68,25,4,11,18
1461662141638607,42,2,23,-41,-8,23,40,11
1461662141653603,-68,34,-54,-34,-9,-20,-74,-39
1461662141653603,2,33,35,60,37,-3,-18,14
1461662141659647,-23,-11,103,-39,-13,-6,0,-5
1461662141659647,21,3,-59,90,33,1,-29,-3
1461662141676622,9,29,-20,-32,-18,4,15,-3
1461662141676622,24,30,-12,-59,-50,-32,28,12
1461662141682625,-23,-19,1,16,19,50,73,4
1461662141682625,-20,5,-14,-48,11,67,52,-4
1461662141697636,-36,32,27,117,13,-80,-111,-16
1461662141697636,57,27,4,8,-5,-36,-8,25
1461662141698637,19,-16,-9,-46,-10,22,16,-10
1461662141698637,-1,8,25,-67,-62,-32,-22,9
1461662141713647,19,30,34,127,63,34,39,-1
1461662141713647,-35,25,-20,-72,-19,-18,15,-12
1461662141719651,-33,-15,-60,-82,-63,23,-47,-29
1461662141719651,0,11,70,95,64,-20,-34,-8
1461662141736665,-6,29,19,-93,-21,-37,-27,18
1461662141736665,24,24,30,-67,-42,-15,15,-1
1461662141750732,-14,-6,-25,-26,13,41,53,-2
1461662141750732,-40,10,-58,-19,10,16,-47,-23
1461662141773703,65,25,37,91,22,-10,-7,21
1461662141773703,-18,22,10,-4,-5,7,38,8
1461662141774691,15,-4,-17,-23,6,-14,-31,-20
1461662141774691,-20,12,14,-40,-23,12,66,8
1461662141776693,15,26,2,13,4,11,-44,-16
1461662141776693,-9,21,-23,-5,-18,-35,-25,18
1461662141779707,-25,4,-7,-2,-1,-27,-22,-4
1461662141779707,10,12,40,-66,-32,6,-6,3
1461662141794704,9,27,-50,53,74,31,49,12
1461662141794704,-26,21,-72,-105,-31,21,27,-11
1461662141802709,-15,-1,18,-51,-5,-2,28,-5
1461662141802709,4,12,43,65,19,24,34,-4
1461662141817720,-22,24,12,-8,-23,-18,-53,-18
1461662141817720,6,23,-85,-39,3,-4,-51,11
1461662141824725,28,2,57,116,78,8,16,22
1461662141824725,-12,13,-3,-79,-30,-15,-37,-25
1461662141840736,-12,22,12,18,0,27,29,-4
1461662141840736,24,22,3,1,7,1,47,-3
1461662141840736,-27,3,-20,-21,-38,-10,-41,10
1461662141840736,24,13,-16,22,-7,-11,80,13
1461662141855747,6,23,1,-29,-4,29,-29,-19
1461662141855747,0,21,39,12,-7,-26,21,22
1461662141861751,-5,8,-18,-22,-21,-54,-29,-5
1461662141861751,-12,15,-15,47,2,-56,-75,-15
1461662141877762,-21,22,-29,-98,-14,24,29,3
1461662141877762,-11,19,6,-5,-8,45,-7,-35
1461662141878762,23,8,43,91,46,22,36,26
1461662141878762,30,16,-57,-20,-7,-4,-30,6
1461662141900817,-27,21,-69,-55,-45,-37,9,-15
1461662141900817,-1,20,86,90,35,28,-9,-16
1461662141900817,-10,5,-10,-28,26,15,10,9
1461662141900817,17,17,-36,-84,-10,-2,-14,-8
1461662141915852,-9,19,10,-85,-26,8,-6,3
1461662141915852,15,23,39,36,14,-25,-32,10
1461662141930845,-12,5,4,31,11,29,67,10
1461662141930845,11,17,11,7,3,37,-23,-13
1461662141937821,-3,19,-10,-35,-30,-49,-32,-3
1461662141937821,76,21,-5,7,-5,-48,-29,45
1461662141938806,-21,10,14,-11,-21,-49,-34,-13
1461662141938806,-38,16,10,4,5,15,-10,-15
1461662141967842,6,20,5,20,13,18,32,2
1461662141967842,-70,20,-18,14,6,37,20,-20
1461662141968841,48,4,-17,-91,-33,5,-5,5
1461662141968841,-12,18,4,44,14,-6,-6,0
1461662141975847,5,19,2,-57,-23,-12,3,2
1461662141975847,12,21,-22,61,69,34,30,4
1461662141981837,9,5,-21,-12,10,10,-5,-5
1461662141981837,8,18,47,89,48,10,8,8
1461662141997906,11,18,14,-49,-26,-18,-5,3
1461662141997906,-11,22,-39,-28,-15,4,12,-2
1461662141998864,-9,5,15,-26,-17,12,1,-14
1461662141998864,-17,18,1,-16,6,15,17,-7
1461662142019922,15,17,0,53,9,-40,-53,28
1461662142019922,-12,21,-5,-56,-31,-27,-32,-12
1461662142020863,-23,7,2,36,4,-5,20,3
1461662142020863,10,20,-14,-13,-4,42,-36,-23
1461662142052888,30,18,6,6,0,-23,1,20
1461662142052888,35,20,4,0,-5,-5,29,0
1461662142053889,-18,10,-4,-3,-3,-13,-17,-4
1461662142053889,15,17,-35,-106,-45,10,45,9
1461662142057948,-53,18,72,82,36,38,21,-16
1461662142057948,18,17,-1,47,49,18,-6,2
1461662142058890,13,8,-51,-38,-13,0,-6,-5
1461662142058890,-23,18,-4,20,-19,-46,-37,-14
1461662142079920,30,16,26,-24,-2,4,-1,2
1461662142079920,0,20,26,-40,-10,0,9,1
1461662142080906,-8,14,19,13,16,11,1,-13
1461662142080906,23,9,-45,-41,-28,-33,-12,14
1461662142095931,-72,11,-27,1,-4,2,51,-1
1461662142095931,-16,-1,11,21,5,41,6,-3
1461662142101980,27,3,-10,-24,-20,-28,-51,1
1461662142101980,-34,1,12,6,1,-53,-40,-3
1461662142124951,26,-128,1,24,5,2,27,11
1461662142124951,-19,-92,-5,-21,-13,-26,9,8
1461662142125939,-17,119,3,9,5,48,11,-8
1461662142125939,11,127,12,11,15,14,-4,-4
1461662142139962,25,32,-24,-60,-14,22,4,1
1461662142139962,0,-35,4,-17,-19,0,10,-4
1461662142140977,10,91,11,48,28,-1,9,6
1461662142140977,1,127,13,-9,11,-17,2,-2
1461662142162992,-3,87,-29,47,12,5,-17,-8
1461662142162992,-4,41,-18,-44,-13,-7,-1,2
1461662142163965,2,127,14,-2,-13,-13,-4,-8
1461662142163965,-18,127,24,56,23,13,3,-3
1461662142177989,21,6,-9,-20,-7,-9,-3,-7
1461662142177989,6,-59,2,12,4,3,2,19
1461662142178974,-13,104,3,-1,3,4,47,-4
1461662142178974,7,127,-8,-35,-18,-9,-23,-4
1461662142200029,-58,8,-11,-4,-8,-42,-68,-13
1461662142200029,17,-122,7,13,1,-42,-5,-10
1461662142200999,2,-29,-7,-21,-9,32,1,-4
1461662142200999,-2,30,1,-6,-1,6,31,9
1461662142216016,43,-84,10,18,13,69,29,11
1461662142216016,-20,-112,-3,-12,-7,0,4,-6
1461662142222020,-13,-55,1,-1,-7,-18,-19,-6
1461662142222020,-7,-16,-3,-72,-30,-18,-6,-6
1461662142238024,7,-90,20,67,41,8,8,7
1461662142238024,8,-110,-2,34,13,-3,-18,0
1461662142239025,12,-124,4,25,14,8,4,2
1461662142239025,4,-123,7,12,-10,-11,-13,-1
1461662142260040,-6,-48,-9,-46,-13,-12,3,-3
1461662142260040,-12,36,-4,-19,-14,12,3,-11
1461662142261032,4,113,1,3,-5,-18,-12,-1
1461662142261032,-6,122,-1,0,-1,8,15,6
1461662142276059,0,84,-11,-15,-4,-4,-22,0
1461662142276059,14,127,10,15,6,3,26,3
1461662142282063,-28,127,-11,-11,-2,7,-30,-3
1461662142282063,-4,87,-7,1,-2,-38,12,13
1461662142297098,9,68,1,3,2,90,35,-8
1461662142297098,9,58,-4,-9,-7,-35,-64,-6
1461662142305103,0,20,6,-5,-11,-7,29,3
1461662142305103,-13,-13,-4,-20,-5,1,-2,-4
1461662142320113,0,1,18,13,5,-36,5,8
1461662142320113,2,-17,2,-2,7,23,12,-2
1461662142321074,13,-13,29,43,18,-3,-8,-2
1461662142321074,-8,-15,-10,7,4,-6,-12,-2
1461662142336100,-3,-6,-13,6,-2,-21,2,-1
1461662142336100,2,2,2,-18,-9,6,-2,-6
1461662142342091,-11,-12,-31,-18,-10,-13,-11,-7
1461662142342091,2,-3,9,7,-4,-7,-12,-6
1461662142357172,17,-3,-15,-22,-7,5,4,2
1461662142357172,-36,-10,0,3,-1,9,8,1
1461662142365168,16,-7,3,-2,-2,0,-1,-2
1461662142365168,-11,-7,4,10,-1,-13,-25,4
1461662142380141,-14,-18,-3,-3,-4,-20,0,5
1461662142380141,20,2,-5,6,8,48,21,7
1461662142381142,-17,-25,1,-6,1,4,-4,-11
1461662142381142,10,-36,-7,1,-1,5,1,-1
1461662142396134,1,-23,-3,-5,-7,-39,-4,0
1461662142396134,6,-5,3,-15,-5,-3,3,0
1461662142402157,4,-4,-5,-4,2,6,3,-2
1461662142402157,-1,-26,-7,-14,-16,-12,-10,-4
1461662142417145,-4,-1,34,41,18,11,3,4
1461662142417145,2,4,-12,9,7,-7,4,-6
1461662142425151,0,-19,-38,-8,1,7,-5,-6
1461662142425151,-10,-18,-10,5,0,-5,-1,-3
1461662142442162,0,-3,34,-26,-16,-20,-2,3
1461662142442162,-2,-19,-31,-10,-2,12,-7,-5
1461662142443178,-9,-1,24,0,-4,-23,-9,-9
1461662142443178,4,-7,-5,5,2,13,8,6
1461662142463236,-1,-11,-23,-16,-7,-30,-11,-2
1461662142463236,1,3,19,9,1,24,9,-6
1461662142464194,-4,-7,-1,-9,-3,-13,-2,14
1461662142464194,4,-2,2,2,3,48,29,8
1461662142477188,-7,-9,7,2,2,20,-10,-15
1461662142477188,-11,-12,-8,-2,-2,-27,3,-4
1461662142485256,-3,-5,1,-5,-1,16,-9,-16
1461662142485256,9,1,15,9,6,-5,-1,10
1461662142500201,-1,-8,-30,-3,-3,-10,-4,2
1461662142500201,-3,5,5,-4,-3,-4,-9,-6
1461662142501232,2,4,12,2,-1,1,4,-3
1461662142501232,3,12,0,-2,2,-8,-8,-3
1461662142517215,-8,-29,-42,-16,-6,2,1,-3
1461662142517215,5,20,10,1,3,-8,0,2
1461662142522226,-2,-12,-5,11,5,4,2,1
1461662142522226,-2,8,25,7,-3,-4,-6,-3
1461662142537261,7,21,-2,-2,-1,-4,3,4
1461662142537261,-10,-20,-2,-4,-5,3,-4,-2
1461662142545235,0,8,0,-7,-6,-17,-7,-3
1461662142545235,0,-7,-13,0,-1,10,0,-1
1461662142560246,4,7,9,-4,-5,-20,2,6
1461662142560246,-1,3,6,1,3,26,2,-1
1461662142561245,4,0,-12,-8,-2,13,-2,-7
1461662142561245,3,4,3,6,-1,-6,4,5
1461662142576256,1,-1,8,1,0,2,3,9
1461662142576256,-1,0,-4,4,1,-21,-13,-6
1461662142582260,-8,-5,8,-4,-5,-6,-4,-2
1461662142582260,0,-14,-35,-5,1,-4,7,14
1461662142605275,2,-1,7,7,2,3,-17,-25
1461662142605275,-3,1,-5,-7,-6,-8,-4,-1
1461662142606276,0,3,-16,-1,3,4,-3,-5
1461662142606276,1,-9,11,4,0,-10,-2,-1
1461662142622287,0,8,-12,3,5,13,5,9
1461662142622287,-3,-15,-11,-5,-3,-9,-2,-3
1461662142622287,1,9,30,0,-4,5,-2,-1
1461662142622287,0,5,10,4,1,-8,2,-1
1461662142636297,-3,-5,-13,-3,0,3,-7,-4
1461662142636297,-3,-2,2,0,0,10,1,-1
1461662142642301,1,5,-13,-6,-2,-5,0,3
1461662142642301,1,4,21,2,-1,0,-5,-1
1461662142657351,-6,-13,-10,3,-1,-17,-2,-1
1461662142657351,-3,-1,2,-1,-2,-11,-1,-1
1461662142664357,-2,-4,-11,-2,0,21,8,1
1461662142664357,-2,-6,-1,-4,1,2,-15,-6
1461662142680369,-1,2,6,2,0,0,13,7
1461662142680369,2,-4,-15,-6,-3,-9,-13,-1
1461662142681330,2,2,7,-1,-2,-7,-3,4
1461662142681330,1,1,12,8,4,-2,1,-4
1461662142696354,-6,-19,-46,-6,-3,4,1,1
1461662142696354,-11,-25,-21,-7,0,3,0,-3
1461662142702403,-4,-3,10,-3,-3,-6,0,-7
1461662142702403,3,5,2,-2,-4,-1,-6,-2
1461662142717414,8,26,24,-4,-2,3,4,1
1461662142717414,3,0,-2,2,0,-6,10,10
1461662142724372,-4,-14,9,1,-1,2,-24,-15
1461662142724372,1,4,-34,-6,-4,-7,19,-1
1461662142740383,-3,-7,3,-5,-1,-14,-23,-2
1461662142740383,3,4,-14,1,0,31,28,-3
1461662142741384,-3,-4,3,0,-2,-2,2,5
1461662142741384,8,6,16,2,1,2,0,12
1461662142756385,9,13,1,3,3,2,6,1
1461662142756385,-7,-20,-30,-12,-7,-13,-10,-4
1461662142762445,-12,-11,-28,3,4,-4,-2,-4
1461662142762445,-13,-22,-10,-8,-5,2,-5,-10
1461662142777397,0,5,30,-2,-2,0,1,3
1461662142777397,3,13,33,7,1,-5,-12,-4
1461662142784461,3,-1,-24,3,1,-1,7,2
1461662142784461,-3,-13,3,-4,-3,-4,-7,-4
1461662142800472,-7,-8,-20,-9,-4,1,0,-3
1461662142800472,1,5,13,6,2,-3,-3,-3
1461662142801416,2,9,15,0,-2,-3,2,0
1461662142801416,3,9,8,2,3,0,-2,4
1461662142816432,1,-4,5,-1,0,7,5,-1
1461662142816432,-3,0,-4,-4,-5,-3,-3,-3
1461662142822454,2,5,10,-1,1,-5,4,1
1461662142822454,0,-9,-14,-2,-3,-3,-22,-3
1461662142837447,-3,-1,-4,2,0,7,19,1
1461662142837447,-4,-3,-5,-3,-2,-3,-8,0
1461662142844470,-5,-17,-21,-7,-4,2,10,-1
1461662142844470,4,12,15,1,-2,0,2,-1
1461662142860480,1,7,14,1,-1,-1,-1,-3
1461662142860480,-1,2,12,1,2,-4,-7,0
1461662142861471,-3,-4,-26,-3,-2,-1,-3,-2
1461662142861471,-2,-4,-1,2,0,0,4,0
1461662142876481,-3,13,7,1,2,-1,-11,1
1461662142876481,3,11,9,-1,-2,1,8,0
1461662142882472,-3,7,26,7,-2,-4,-6,-3
1461662142882472,-1,-16,-50,-4,0,-2,1,-2
1461662142897522,-1,-5,4,3,2,1,0,0
1461662142897522,5,15,42,7,3,0,0,-2
1461662142904499,-2,-6,-30,-8,-4,-2,-3,-3
1461662142904499,1,14,7,0,-1,-4,-2,-1
1461662142920513,-9,-26,-17,-7,-2,0,-2,-3
1461662142920513,4,4,-3,-8,-5,-2,1,-2
1461662142921514,-14,-20,2,8,6,1,-4,-1
1461662142921514,0,1,11,0,1,-3,3,-4
1461662142936517,-6,-8,-17,-4,-6,-5,-30,-4
1461662142936517,3,7,-3,-10,-1,4,26,2
1461662142942513,0,7,21,-12,-12,-7,-8,-2
1461662142942513,1,12,32,15,7,6,8,1
1461662142957583,3,4,7,2,-1,-1,0,-1
1461662142957583,-6,-15,-8,5,0,-2,-11,-3
1461662142964588,6,13,5,-8,-2,-1,1,0
1461662142964588,-5,-23,-50,-7,-3,1,-3,-1
1461662142980600,3,-5,7,-7,-6,0,4,1
1461662142980600,0,8,-4,-2,3,-1,-5,-2
1461662142981567,3,-1,-2,14,6,2,5,2
1461662142981567,6,18,11,-16,-7,-4,-6,-1
1461662142996577,-1,6,0,1,-2,-1,3,0
1461662142996577,-2,-10,-4,6,3,0,1,0
1461662143002582,-1,12,11,3,-2,-4,-7,-4
1461662143002582,-7,-21,6,0,-4,-2,-2,-1
1461662143017637,13,7,-32,-3,1,3,14,5
1461662143017637,-8,-3,15,-8,-7,-11,-30,-5
1461662143024588,-3,-3,5,-4,-1,3,22,1
1461662143024588,3,0,-13,-5,-4,0,-1,1
1461662143040599,-9,-11,3,0,1,-3,1,-5
1461662143040599,5,-5,-47,7,7,3,-3,5
1461662143041602,2,12,32,-2,-5,0,8,-6
1461662143041602,-4,4,19,-5,-2,1,0,0
1461662143056628,3,-1,3,0,3,2,8,3
1461662143056628,3,12,5,7,2,0,1,0
1461662143062664,-4,-19,-21,-9,-2,-7,-23,-9
1461662143062664,-5,-2,-9,-4,-3,0,4,-1
1461662143077626,5,14,10,13,6,1,-8,1
1461662143077626,1,-2,6,-2,-1,6,8,1
1461662143084650,11,5,-15,-13,-1,-1,-9,0
1461662143084650,-30,-53,-15,-10,-9,-13,-7,-10
1461662143099687,5,5,2,8,0,-5,-6,3
1461662143099687,-3,-4,4,-9,-5,-2,1,0
1461662143107697,-17,-45,-38,-20,-15,-5,-5,-7
1461662143107697,-1,11,25,11,11,8,-2,-1
1461662143116668,8,21,16,7,7,5,7,3
1461662143116668,1,-3,11,16,9,3,3,1
1461662143122658,3,-2,10,9,7,2,-3,2
1461662143122658,7,7,-21,-16,-12,-6,1,2
1461662143138656,-3,-9,6,-2,2,2,1,0
1461662143138656,-1,6,2,-5,-6,-5,-2,-5
1461662143144657,-1,4,-5,3,1,-2,-3,-1
1461662143144657,-2,-7,8,4,2,-1,1,-1
1461662143161685,-5,-15,-2,-1,-4,-3,0,-3
1461662143161685,0,3,4,-2,-4,-3,-2,-3
1461662143162684,-9,-15,-29,-7,-6,-5,-7,-4
1461662143162684,4,9,-7,4,0,-1,4,-1
1461662143190704,4,6,-3,-5,-2,3,0,1
1461662143190704,-6,-5,10,0,-3,-3,-1,-4
1461662143190704,3,26,25,5,3,2,0,3
1461662143190704,12,24,10,-18,-6,-1,-2,3
1461662143198712,-12,-29,-32,8,-2,-2,-3,-6
1461662143198712,0,2,-4,6,6,-1,-1,0
1461662143204703,1,12,12,11,7,4,4,3
1461662143204703,0,4,-8,7,3,-2,-3,-2
1461662143219860,5,7,5,-19,-10,-2,3,2
1461662143219860,-7,-16,-13,-11,-7,-1,-2,-2
1461662143226806,-1,0,10,-3,0,-2,1,2
1461662143226806,0,-2,-22,-1,-4,-5,-4,-1
1461662143235875,-3,-5,33,0,-4,-5,-3,-1
1461662143235875,-8,-12,-42,-9,0,2,0,-3
1461662143241830,3,10,10,-2,1,3,1,0
1461662143241830,2,-5,-2,5,1,-2,-1,0
1461662143256887,4,15,13,4,4,-2,-13,0
1461662143256887,0,9,17,-2,-3,0,6,-1
1461662143264893,-4,-13,-7,-4,-6,-2,-1,0
1461662143264893,-1,7,7,7,5,4,2,1
1461662143279899,-4,-6,-13,-4,1,-1,4,1
1461662143279899,-1,-12,-13,-4,-3,-3,-7,-3
1461662143286906,1,3,8,7,1,-1,-2,-1
1461662143286906,3,-4,6,11,7,2,1,2
1461662143295894,1,7,4,-7,-2,-1,-1,1
1461662143295894,-6,-4,-2,-3,-2,1,2,0
1461662143301916,-4,-3,-5,-12,-10,-5,-2,-5
1461662143301916,-5,-6,-5,-5,3,1,-3,-1
1461662143316931,0,3,16,26,7,1,3,-1
1461662143316931,1,-6,-13,-2,0,0,-1,-2
1461662143324905,1,5,-7,9,2,-1,-2,0
1461662143324905,4,-2,1,-12,-8,-4,-1,-1
1461662143339914,1,11,-16,-21,-8,0,3,-1
1461662143339914,-6,-2,41,11,-1,-2,-3,-2
1461662143346908,1,0,-32,-12,-2,0,-3,0
1461662143346908,-4,-19,-15,-2,2,3,1,-1
1461662143355915,3,-2,-17,-2,0,-2,0,0
1461662143355915,-1,-1,14,-2,-2,-2,-3,-1
1461662143361918,0,-6,8,2,-2,-2,0,-2
1461662143361918,-3,12,24,6,-2,-1,-1,0
1461662143378924,-1,-15,-33,-4,-1,0,-3,-2
1461662143378924,1,5,-14,-10,-7,-3,-2,0
1461662143384955,0,3,4,9,8,2,1,1
1461662143384955,-3,7,25,17,6,2,-1,-5
1461662143407972,-3,-1,24,-17,-6,0,0,-1
1461662143407972,3,-4,-16,-12,-9,-6,-4,-2
1461662143408934,1,4,-8,19,8,1,2,1
1461662143408934,-1,9,17,-4,-3,-1,0,0
1461662143423018,-1,-20,-10,1,1,-2,-1,-3
1461662143423018,-12,-8,-5,-10,-4,0,-3,-3
1461662143424018,0,7,-2,-11,-7,-3,-2,-1
1461662143424018,0,-2,-12,1,0,-2,1,0
1461662143437019,5,8,7,3,1,1,1,3
1461662143437019,-8,-11,-3,2,1,-1,-1,-2
1461662143445039,1,2,2,-2,-2,-1,-1,0
1461662143445039,-1,4,5,-7,-3,-5,-2,-1
1461662143460091,-7,-27,-28,1,-3,2,-1,-2
1461662143460091,6,23,25,1,4,1,-2,1
1461662143467108,-1,-6,-2,16,7,1,-1,-4
1461662143467108,-1,-10,-28,-16,-9,-2,-1,0
1461662143483133,1,16,24,10,2,0,1,0
1461662143483133,6,3,-15,-2,1,-2,-1,1
1461662143490115,-16,-40,-29,-19,-2,0,-3,-6
1461662143490115,6,17,31,17,2,-2,-3,0
1461662143497149,-5,-18,-1,6,2,0,0,0
1461662143497149,1,23,8,1,-2,-1,-4,-3
1461662143505154,5,15,6,-5,-4,-2,-1,1
1461662143505154,-5,-12,-32,-10,-4,-2,-1,-1
1461662143520166,-1,2,5,-7,-4,-2,-1,1
1461662143520166,5,7,3,5,-1,-1,0,-2
1461662143527155,1,-2,-3,-8,-7,-4,-3,-3
1461662143527155,-2,-13,-6,1,1,0,-2,2
1461662143542158,0,19,22,0,0,-3,-1,-3
1461662143542158,-4,-21,-42,-7,1,4,2,-2
1461662143550195,0,2,15,-1,-4,-1,-4,-1
1461662143550195,5,2,-4,-8,-5,-1,0,-1
1461662143557162,-1,2,-1,1,3,0,3,2
1461662143557162,8,10,8,7,1,-2,3,1
1461662143565167,-15,-23,2,-3,-2,-2,-3,-5
1461662143565167,-2,1,2,4,3,5,2,0
1461662143580178,-6,-4,-9,-14,-10,-6,-4,-3
1461662143580178,-4,-5,4,6,4,3,1,-1
1461662143587182,4,5,7,-11,-6,-2,-1,1
1461662143587182,-3,-5,-8,8,5,1,-1,-2
1461662143603193,3,4,-4,0,0,-1,-1,-2
1461662143603193,-6,-7,5,-1,-1,-1,-2,-2
1461662143603193,-2,2,2,-2,-2,-2,-2,-1
1461662143603193,2,-2,-5,-8,-4,-1,-2,-3
1461662143617205,3,2,-6,0,0,1,-1,0
1461662143617205,-3,-4,1,2,-1,-4,-1,1
1461662143633218,-8,-6,-2,-6,-1,-1,-3,-1
1461662143633218,-2,0,-1,1,1,0,-1,-2
1461662143639218,1,2,0,4,0,1,-1,0
1461662143639218,2,-4,-3,-5,-3,-2,-1,-1
1461662143655230,6,1,0,1,0,1,2,5
1461662143655230,-1,0,-2,1,-2,-1,-1,0
1461662143663248,-5,-6,-1,-8,-2,-1,-3,-5
1461662143663248,-2,-7,-5,1,-1,-1,-2,-1
1461662143663248,0,5,4,9,4,1,2,-1
1461662143663248,4,8,6,5,3,0,1,2
1461662143685311,-1,0,-1,-5,-2,0,0,1
1461662143685311,-5,-5,-4,-12,-5,-2,-1,-3
1461662143686253,-2,5,2,3,-1,-2,-1,-3
1461662143686253,-1,-5,-6,-1,-3,-2,0,-1
1461662143700280,-1,-1,4,8,4,0,1,1
1461662143700280,-1,2,-1,3,0,1,-1,-1
1461662143707333,-7,-11,-5,-13,-5,-2,-2,-2
1461662143707333,-10,6,-4,-8,-6,-3,-2,-4
1461662143723279,-3,1,0,7,1,-2,0,0
1461662143723279,-5,-7,5,3,0,-2,-1,-2
1461662143723279,-2,-6,-11,-5,-2,-2,-4,-2
1461662143723279,4,1,-1,-6,0,1,1,0
1461662143737290,0,-2,-1,7,1,-1,0,2
1461662143737290,-5,-3,-3,-1,0,0,-2,-2
1461662143745295,-2,-5,1,-1,-1,-2,0,-2
1461662143745295,4,5,7,4,1,2,0,3
1461662143759305,0,-6,-10,-5,-3,-1,0,-2
1461662143759305,1,-4,-10,-4,-3,0,0,-1
1461662143775314,1,6,3,-3,-1,0,-2,-1
1461662143775314,-1,-5,0,11,1,-2,0,-3
1461662143783320,3,7,3,-6,-2,0,0,2
1461662143783320,-1,-1,3,-8,-6,-5,-2,-1
1461662143783320,0,1,-1,4,5,0,0,-1
1461662143783320,-1,-3,-2,5,2,-1,-1,1
1461662143805382,0,-4,-4,-1,0,-3,-1,0
1461662143805382,-2,-1,8,-7,-1,0,-1,-1
1461662143806384,-4,1,-6,-8,-7,-2,-3,-3
1461662143806384,-1,-1,11,11,3,-2,0,2
1461662143827397,4,5,-1,-1,0,0,1,2
1461662143827397,0,0,-5,1,-1,-1,-1,-3
1461662143828396,0,2,5,-8,-7,-4,-3,-1
1461662143828396,-5,-2,7,-1,5,2,2,2
1461662143842396,-2,-9,-12,-2,-2,1,1,-1
1461662143842396,4,3,-5,1,-2,-1,-3,-1
1461662143843403,1,-2,0,3,-1,0,-1,-2
1461662143843403,-2,-6,-7,-12,-6,-3,-3,-2
1461662143858469,1,4,10,1,-5,-2,-1,0
1461662143858469,1,4,3,4,7,2,-1,0
1461662143864470,-3,-5,-14,2,-4,-2,-2,-4
1461662143864470,0,8,18,2,3,1,1,2
1461662143879423,2,5,15,-7,-1,-2,-1,-3
1461662143879423,-4,-5,-14,-4,-3,-2,-1,-2
1461662143887456,0,5,2,-2,0,-2,-1,-2
1461662143887456,-4,-29,-22,-13,-7,-2,-1,0
1461662143904444,2,19,19,14,7,2,0,0
1461662143904444,-3,0,-5,1,0,1,1,-2
1461662143905441,-1,0,6,11,5,1,-1,1
1461662143905441,9,23,4,-8,-4,-1,-1,-1
1461662143918475,-12,-21,-19,1,-1,-3,-3,-2
1461662143918475,-8,-21,2,-2,-1,-1,-2,-5
1461662143924470,3,4,-1,-3,-2,0,1,-1
1461662143924470,1,-3,7,-1,2,0,0,0
1461662143939481,5,8,-22,1,0,0,-1,2
1461662143939481,-2,5,6,-2,-1,-1,-3,-2
1461662143947486,-5,-12,4,1,-1,-1,-1,-1
1461662143947486,5,5,-2,-2,-4,0,0,-1
1461662143962637,-1,-3,-5,-7,-4,-3,-2,-1
1461662143962637,0,2,2,-3,-5,-4,-2,-2
1461662143963595,6,5,0,20,12,2,0,2
1461662143963595,4,6,1,7,1,-1,0,1
1461662143978603,-1,-15,-15,-12,-4,-1,-1,-2
1461662143978603,-3,-1,-10,0,-3,0,-2,-3
1461662143984627,0,19,5,-6,-4,-2,-2,-1
1461662143984627,0,-14,-3,7,3,0,-1,2
1461662143999604,-1,5,14,2,-1,0,-1,-1
1461662143999604,6,20,7,7,6,0,-2,1
1461662144007669,-14,-35,-7,-9,-4,-2,0,-3
1461662144007669,-2,-4,-25,-11,-5,-3,-2,-1
1461662144024637,-5,-18,-4,0,-4,0,0,-1
1461662144024637,4,5,1,-11,-3,0,1,2
1461662144025639,-1,0,-7,9,0,1,0,-1
1461662144025639,0,9,7,-6,-2,1,-1,1
1461662144038629,0,7,8,-1,0,-2,-1,-1
1461662144038629,0,3,4,4,0,-4,-6,1
1461662144044633,3,15,20,2,-1,-4,2,-2
1461662144044633,-8,-14,-20,-16,-9,-3,0,-3
1461662144059681,1,6,3,9,3,0,-1,1
1461662144059681,-3,-9,-11,1,0,-1,4,-1
1461662144067717,6,5,9,-4,0,1,0,3
1461662144067717,0,2,4,10,0,-4,-6,-2
1461662144082663,-2,-7,-10,-1,0,0,-1,-3
1461662144082663,-5,-12,2,-1,-2,-2,-3,-2
1461662144083678,-2,-5,-15,-9,-1,-1,-1,0
1461662144083678,-1,-6,5,-5,-3,-1,0,-2
1461662144113745,-7,-12,-10,4,1,1,1,1
1461662144113745,0,5,0,3,-2,-1,-1,-2
1461662144114700,-2,4,1,-6,-1,-2,-1,-4
1461662144114700,0,6,-1,-4,-4,-2,0,1
1461662144119749,5,3,8,4,3,0,0,1
1461662144119749,-5,-6,-1,1,-1,-2,-2,-1
1461662144127695,-1,0,-5,-2,0,0,-2,-2
1461662144127695,-1,0,0,-2,-1,0,-2,0
1461662144142732,1,2,1,-13,-6,-3,-1,-1
1461662144142732,-2,-12,-1,0,-1,-3,0,-1
1461662144143712,3,7,-5,-5,-5,-2,-1,1
1461662144143712,-2,-1,2,5,2,0,1,-2
1461662144158714,-2,0,1,-3,-2,-1,1,0
1461662144158714,1,2,0,-4,-3,0,-2,-3
1461662144164734,-4,-4,4,-9,-6,-2,-1,-2
1461662144164734,3,0,-9,-5,-2,-2,-1,1
1461662144179789,-6,-9,-5,6,1,0,-1,-1
1461662144179789,-3,-11,-7,-4,-2,-2,-2,-4
1461662144187738,-8,-18,-27,-5,-3,-1,-1,-1
1461662144187738,-2,5,3,0,-1,0,1,0
1461662144202764,5,7,8,0,-2,-2,-3,2
1461662144202764,1,6,1,-9,-3,-3,-1,-1
1461662144209766,-2,3,5,-1,-1,-3,-2,-2
1461662144209766,0,-9,0,5,2,0,-2,-1
1461662144218772,-1,-4,-3,-3,0,-1,1,0
1461662144218772,-1,4,4,4,0,0,-1,1
1461662144224760,3,1,1,3,3,1,1,1
1461662144224760,4,4,1,-1,0,-2,0,-2
1461662144239783,1,-1,3,-12,-5,-1,0,-2
1461662144239783,-3,8,-4,0,0,-1,-3,-1
1461662144247793,-1,-6,-3,0,0,-2,-1,-1
1461662144247793,-4,-6,-2,1,1,0,0,-1
1461662144261847,-1,5,7,0,-1,0,-2,-1
1461662144261847,0,-5,-1,-2,1,2,0,0
1461662144269850,-1,-2,0,2,-1,0,0,0
1461662144269850,-4,-3,-6,-1,0,-2,-1,0
1461662144278808,1,0,-3,-7,0,-2,1,2
1461662144278808,-4,-6,-3,-1,-6,-3,-2,-2
1461662144284832,-1,-1,-5,5,1,-3,-3,-4
1461662144284832,5,14,6,-2,-3,-2,0,0
1461662144299844,-8,-21,3,2,2,2,-1,-1
1461662144299844,-4,-11,-10,2,0,-2,-2,-3
1461662144315846,-1,-4,-2,-6,-3,-1,-1,0
1461662144315846,-8,-7,-2,2,-1,-1,-2,-2
1461662144321849,6,21,6,5,-1,-3,-3,-1
1461662144321849,-3,-4,1,-5,0,1,-1,-2
1461662144329855,1,-1,3,4,4,2,1,2
1461662144329855,0,-4,-5,-11,-4,-2,-1,1
1461662144345873,2,5,3,8,0,-1,-1,-2
1461662144345873,4,8,4,2,2,2,0,-4
1461662144345873,-6,-9,-3,-5,-5,-2,-2,0
1461662144345873,-6,-11,-2,0,2,3,0,-1
1461662144359875,-3,-3,-7,-5,-3,-1,0,-1
1461662144359875,1,4,-2,-14,-8,-4,-3,-2
1461662144366920,1,3,7,9,4,1,1,-1
1461662144366920,2,3,2,27,15,4,1,0
1461662144383888,1,9,-5,-3,0,-1,-3,-1
1461662144383888,-9,-9,-3,-6,-2,-2,-2,-2
1461662144389879,2,1,4,-3,-3,-1,-2,-2
1461662144389879,-2,0,0,-10,-7,-4,-2,0
1461662144413953,-5,2,-1,2,0,1,0,-1
1461662144413953,6,2,0,2,1,0,-2,-1
1461662144414910,-13,-25,-11,-7,-5,-3,-3,-3
1461662144414910,4,-8,1,1,-2,-1,-1,0
1461662144419958,0,-3,-4,-4,-2,-1,0,-2
1461662144419958,-6,1,-3,-3,-6,-4,-3,-2
1461662144426918,1,4,-2,-5,-2,-1,0,-1
1461662144426918,3,4,4,2,-3,-1,0,0
1461662144441928,-2,1,-2,-10,-4,-1,-2,0
1461662144441928,-8,-12,3,24,10,2,2,-2
1461662144449935,8,24,5,11,3,-1,1,2
1461662144449935,-12,-23,-11,-20,-6,-5,-5,-3
1461662144465965,3,10,-7,-13,-9,-1,-2,-1
1461662144465965,-7,-5,10,27,7,0,-1,-3
1461662144465965,-8,-9,-2,2,2,0,1,-1
1461662144465965,7,23,7,-3,0,1,2,2
1461662144479944,-1,-10,-3,-3,-2,-2,-1,-2
1461662144479944,3,8,-6,-17,-7,-3,-3,-1
1461662144486955,3,9,5,0,-2,-1,-1,-3
1461662144486955,1,8,5,5,-1,0,1,-1
1461662144501965,-6,-22,-8,-6,-3,-2,0,-1
1461662144501965,-4,-7,-9,-9,-3,-1,-2,-2
1461662144509971,5,0,0,6,1,-3,-2,0
1461662144509971,3,10,-1,-4,-4,-3,-3,1
1461662144524973,-5,-1,4,6,2,0,2,0
1461662144524973,0,-3,-6,-8,-5,-3,-1,-2
1461662144525974,-5,-6,-7,-7,-5,-1,-2,-4
1461662144525974,-4,-3,1,4,1,1,0,-3
1461662144539983,1,7,1,6,4,1,-1,-2
1461662144539983,-6,-11,-2,-6,-4,-1,0,-1
1461662144546988,2,10,-4,-14,-8,-3,-3,0
1461662144546988,3,3,1,18,2,0,0,-1
1461662144562014,-3,-11,-3,-10,-4,-2,-3,0
1461662144562014,1,12,5,2,0,-3,-3,-3
1461662144570021,-3,15,3,0,2,1,1,0
1461662144570021,0,-6,-2,-7,-3,-1,0,3
1461662144585027,1,-10,-3,-2,-2,-2,0,-1
1461662144585027,-2,-8,0,17,3,1,0,-1
1461662144586015,1,-7,-2,1,0,-1,1,-1
1461662144586015,-3,3,-5,-9,-3,-1,-1,0
1461662144608044,1,8,7,5,3,3,3,1
1461662144608044,1,3,-5,-12,-6,-5,-4,2
1461662144609044,-4,-14,2,2,-3,-2,-1,-1
1461662144609044,4,11,-5,-2,3,0,-2,-2
1461662144622054,-8,-27,-1,-2,-6,-4,-4,-5
1461662144622054,-6,-10,-7,12,3,3,3,-1
1461662144630106,0,-2,1,-2,-2,-2,0,2
1461662144630106,5,13,1,-3,-2,-2,-1,0
1461662144645058,0,1,-5,-6,-1,-2,-3,-1
1461662144645058,-3,2,1,-9,-6,-4,-3,-4
1461662144646058,-1,8,6,4,0,2,-2,-1
1461662144646058,-4,-27,-8,-5,-4,-1,2,0
1461662144661093,0,7,-3,-8,-2,-2,0,-2
1461662144661093,-6,-7,4,1,-5,-3,-2,-3
1461662144667141,7,9,4,11,4,-1,-1,2
1461662144667141,-12,-29,1,2,1,0,0,-5
1461662144682085,5,9,-4,0,1,1,-1,2
1461662144682085,-3,-5,-8,5,0,-5,-6,-3
1461662144690090,-2,7,4,-5,-3,-3,-3,-1
1461662144690090,5,1,5,9,5,-1,2,4
1461662144705100,-4,8,-1,-6,-5,1,7,-4
1461662144705100,-9,-12,-2,-9,2,7,7,-1
1461662144706118,-1,-13,-8,-6,-3,-5,-15,2
1461662144706118,4,2,-4,0,-3,-8,-13,-2
1461662144721115,3,18,3,-7,-4,-6,-11,-2
1461662144721115,-6,-20,-4,-3,0,-4,-1,-5
1461662144727118,2,-3,-6,-1,1,3,9,2
1461662144727118,-5,-6,-3,-18,-8,-2,4,0
1461662144742142,4,11,-3,26,10,6,3,0
1461662144742142,8,20,9,-23,-13,-1,-2,-1
1461662144750148,-12,-34,-20,-1,6,3,2,-4
1461662144750148,1,5,0,6,1,2,1,-2
1461662144765201,-1,-6,10,2,1,-2,1,3
1461662144765201,-2,7,-11,2,4,1,-5,-1
1461662144766159,3,14,5,-8,-5,-2,2,-1
1461662144766159,3,2,-3,-6,-6,-3,0,-1
1461662144788160,0,-13,-6,3,2,-3,-8,1
1461662144788160,0,1,-2,1,-2,3,22,-3
1461662144789159,-3,2,-6,-6,3,10,-3,2
1461662144789159,11,1,3,14,5,6,12,5
1461662144802228,-20,-17,-4,-4,-5,-9,-17,4
1461662144802228,6,1,1,-18,-13,-16,-33,-6
1461662144810239,-7,3,3,-12,-8,-18,-9,-10
1461662144810239,2,2,6,16,8,6,21,2
1461662144827190,10,-3,-11,14,8,8,2,2
1461662144827190,-7,-3,-15,-39,-15,-1,-1,-5
1461662144828190,4,1,18,18,3,6,1,1
1461662144828190,-5,-4,4,-3,1,1,-6,-2
1461662144841197,4,8,12,38,15,7,17,-1
1461662144841197,-3,-12,-16,16,12,5,1,1
1461662144847201,-1,-8,-13,-16,-8,-1,14,3
1461662144847201,-2,-3,0,-8,2,9,7,3
1461662144862213,-3,18,0,-19,-11,-1,-16,-5
1461662144862213,0,5,7,-4,-5,-15,-34,-8
1461662144870217,1,-2,3,5,-4,-22,-29,-3
1461662144870217,8,10,-1,-1,-1,-2,10,-1
1461662144885228,-3,-2,-1,-12,-10,-3,8,-2
1461662144885228,-15,2,0,5,1,8,35,8
1461662144886228,6,-22,-8,-2,7,13,-27,9
1461662144886228,-10,13,-2,-18,-18,-23,-14,-12
1461662144901239,-1,-25,-5,-27,-14,-19,-44,-9
1461662144901239,1,9,-19,-46,-15,-13,-10,2
1461662144907244,2,-13,25,82,21,12,39,6
1461662144907244,-7,29,4,-21,11,16,11,4
1461662144922255,3,9,11,-68,-21,5,26,-1
1461662144922255,18,-5,29,114,80,29,-1,7
1461662144930274,0,51,-3,-22,1,9,27,-11
1461662144930274,9,-4,-12,0,3,6,0,9
1461662144945299,-9,24,20,8,-12,-29,-10,-5
1461662144945299,-8,-22,-20,-35,-23,-25,-38,-2
1461662144946272,10,16,0,-2,1,9,46,8
1461662144946272,-3,-29,-7,12,3,3,-46,-9
1461662144961282,-13,-15,-11,-19,-7,-1,26,8
1461662144961282,-6,19,5,-33,-15,18,57,13
1461662144967303,-2,-4,-16,-20,-9,-9,-87,-19
1461662144967303,-6,15,-19,-46,-30,-56,-34,-2
1461662144984316,8,-25,-6,52,27,22,22,5
1461662144984316,-8,-40,31,-38,-32,-20,-27,-29
1461662144989319,-11,-15,-24,38,22,4,23,4
1461662144989319,-2,16,29,40,21,24,2,-7
1461662145005313,8,11,10,48,27,1,-12,-4
1461662145005313,-11,-23,28,-34,-19,9,46,8
1461662145006328,16,-21,-7,-8,-12,12,19,20
1461662145006328,2,-16,-21,-33,-2,5,15,13
1461662145021326,30,-48,-6,95,17,-17,-56,-3
1461662145021326,-47,-65,-7,-2,2,-15,-42,-38
1461662145027340,-2,-65,4,-12,-8,-7,-24,-16
1461662145027340,-6,-24,-15,-6,-9,2,31,8
1461662145042351,2,18,-8,-79,-30,3,12,22
1461662145042351,25,42,-11,6,-6,-16,-10,4
1461662145049401,-9,24,-11,-50,-30,-38,-11,-12
1461662145049401,9,-41,21,61,45,31,32,4
1461662145067421,-9,-128,-7,-26,-6,19,70,-6
1461662145067421,25,19,-25,-25,-18,-13,-66,-1
1461662145067421,-3,104,11,35,16,-15,24,11
1461662145067421,-1,125,35,-2,-26,-2,-74,-34
1461662145081381,7,127,-6,23,26,22,22,-1
1461662145081381,-6,5,7,14,8,13,34,6
1461662145087429,1,55,-37,-72,-6,10,34,9
1461662145087429,0,41,63,-1,-35,-22,-65,3
1461662145102401,-29,125,-24,102,78,-2,-61,-25
1461662145102401,9,-17,-1,30,16,-3,-9,-2
1461662145109445,8,17,-4,5,4,13,0,-8
1461662145109445,-13,44,-8,-38,-15,2,37,0
1461662145124419,26,-59,-6,-83,-38,18,88,16
1461662145124419,4,-58,3,-9,-1,18,8,6
1461662145132424,-28,-22,-1,14,-12,-6,-22,4
1461662145132424,0,14,-13,8,9,-16,-65,-15
1461662145149431,-11,-36,24,-20,-38,-59,-42,-11
1461662145149431,25,-66,-27,-1,18,19,44,20
1461662145150430,-9,-15,10,-95,-53,25,86,5
1461662145150430,-14,69,-28,94,59,12,-24,1
1461662145162485,-2,-25,22,65,44,-17,-79,-11
1461662145162485,-1,-55,4,15,1,7,26,-4
1461662145178443,23,40,64,-46,-16,3,26,9
1461662145178443,45,58,-16,-41,5,34,116,35
1461662145184500,-61,6,-6,14,26,2,-85,-30
1461662145184500,4,-37,-33,90,34,10,54,5
1461662145192461,29,54,22,-31,-21,10,-33,-1
1461662145192461,-21,40,36,52,14,-55,-36,23
1461662145209522,1,-5,-38,-82,-38,3,81,6
1461662145209522,-12,-17,24,-22,17,25,-42,-9
1461662145215521,-30,37,7,-9,-16,-40,-20,-24
1461662145215521,31,37,-24,-41,-42,-21,-25,-10
1461662145222482,-2,2,0,-17,-21,-11,-2,3
1461662145222482,6,-11,16,-26,-8,13,-9,3
1461662145229486,-17,40,-26,41,30,28,88,0
1461662145229486,-12,34,1,-42,-22,7,7,-7
1461662145244483,2,1,-17,-48,-13,-26,-72,-2
1461662145244483,6,-10,-16,-23,-18,-32,21,3
1461662145252490,-17,34,21,60,41,-2,-84,-15
1461662145252490,27,33,3,33,8,6,44,14
1461662145268532,4,-10,-19,-120,-72,13,46,4
1461662145268532,-5,-1,-38,56,37,27,-13,-13
1461662145268532,24,32,-17,24,25,3,-10,12
1461662145268532,-22,29,49,-42,-32,-11,49,-1
1461662145282514,24,6,7,77,13,15,-12,8
1461662145282514,38,4,8,-25,1,12,17,7
1461662145289545,-55,34,-12,74,22,-3,-100,1
1461662145289545,-40,24,-35,-58,-31,-66,-57,-30
1461662145313555,-15,-6,3,-68,-38,-32,-18,-6
1461662145313555,-32,8,9,37,3,3,67,-10
1461662145313555,41,30,4,-11,6,30,-23,-15
1461662145313555,43,25,-14,-16,-1,37,-40,5
1461662145327554,-37,-2,-4,22,2,-33,19,13
1461662145327554,-9,9,-3,-29,-21,-20,-66,4
1461662145328543,-35,29,-22,-7,-3,-10,21,-14
1461662145328543,-55,25,-46,-106,-37,-3,18,-15
1461662145342550,10,-6,43,33,15,36,24,-1
1461662145342550,-6,7,-29,95,71,9,18,1
1461662145349556,51,28,54,-73,-22,37,93,-3
1461662145349556,42,26,22,-25,21,38,4,16
1461662145372586,-2,-2,-4,88,41,-45,-70,14
1461662145372586,-58,10,35,-83,-36,-61,-39,-1
1461662145374573,2,26,-10,-91,-13,16,6,13
1461662145374573,-3,24,-7,127,59,4,-6,-46
1461662145387603,28,-1,5,-79,-47,3,64,0
1461662145387603,10,12,-3,-5,-12,48,8,16
1461662145388583,64,25,-8,28,-6,-74,-76,-3
1461662145388583,-89,22,-7,-55,-25,-24,14,12
1461662145410657,49,-4,-8,41,23,37,21,9
1461662145410657,-30,13,-10,-65,-37,-11,3,-26
1461662145411609,14,22,29,-6,10,37,43,-10
1461662145411609,52,23,-36,8,3,-3,-23,7
1461662145424621,9,4,6,47,42,15,43,13
1461662145424621,8,15,45,80,27,39,7,9
1461662145440632,64,21,50,95,44,8,-52,11
1461662145440632,7,21,-22,-28,-2,-25,-16,14
1461662145456661,-106,1,15,-42,-32,-5,-14,-26
1461662145456661,12,14,-84,-128,-63,51,43,-25
1461662145456661,-93,21,54,94,34,-64,-80,1
1461662145456661,97,23,-3,48,31,-51,-2,36
1461662145462666,53,1,28,-18,19,44,8,11
1461662145462666,-60,14,-3,-49,-30,-55,-35,-14
1461662145469670,-79,20,-61,-68,-67,-62,1,-36
1461662145469670,-109,21,-4,9,6,33,9,-28
1461662145484652,24,3,-33,-44,-26,11,22,4
1461662145484652,52,16,12,-66,-27,-4,-32,1
1461662145492696,78,19,50,97,79,38,29,18
1461662145492696,-12,21,1,-40,-10,1,8,4
1461662145507707,32,4,-49,-33,-27,-16,-31,-1
1461662145507707,-56,16,66,118,43,13,5,0
1461662145508668,-47,19,-56,-83,-41,-11,-7,-9
1461662145508668,91,22,68,83,-1,13,15,21
1461662145522694,-11,4,-11,-72,-19,6,27,-5
1461662145522694,-43,17,-16,60,51,37,-76,-21
1461662145537707,-52,18,-40,-25,-27,-10,72,8
1461662145537707,4,21,10,-17,-9,-23,-53,-15
1461662145544694,58,5,14,7,-20,-68,-1,28
1461662145544694,10,14,-3,-18,-10,11,-10,0
1461662145552699,-116,19,-34,-48,-32,-39,-33,-97
1461662145552699,-37,22,-4,2,7,13,13,36
1461662145567722,39,7,-1,8,3,19,2,10
1461662145567722,-23,20,-16,-51,-17,-6,46,4
1461662145568723,83,18,-6,-97,-16,61,12,-2
1461662145568723,-23,20,6,69,77,38,31,-8
1461662145582733,-53,11,33,-21,-3,-7,-20,-11
1461662145582733,31,20,24,-12,-26,-36,-11,0
1461662145589738,73,18,23,72,45,23,0,44
1461662145589738,27,21,-38,-100,-40,-19,-8,-3
1461662145604738,-107,11,37,126,37,18,3,-10
1461662145604738,4,24,-23,-60,-21,-10,15,-18
1461662145611754,-24,18,-33,-33,-18,7,11,54
1461662145611754,6,21,-8,16,18,36,40,-5
1461662145627754,-47,14,-2,1,3,-21,-50,-16
1461662145627754,50,20,19,2,-28,-92,-18,39
1461662145628754,-23,19,-11,5,13,14,42,10
1461662145628754,44,21,0,-37,-28,-2,-25,-1
1461662145650808,-77,13,-25,-40,-10,25,-22,-27
1461662145650808,10,25,-13,36,9,-9,-15,-10
1461662145650808,-3,19,-32,-67,-44,-8,-9,-9
1461662145650808,-14,22,12,-10,-2,19,30,-4
1461662145664820,47,16,-15,-12,10,3,-1,-19
1461662145664820,20,24,5,33,28,-3,-2,8
1461662145672787,6,19,10,75,17,-1,0,2
1461662145672787,8,22,9,-98,-70,-17,-12,-25
1461662145695827,11,17,-7,93,57,-1,-7,-3
1461662145695827,-18,19,9,-4,17,13,22,16
1461662145696802,54,19,-35,-14,-14,-9,-17,-14
1461662145696802,-33,22,-27,-13,-9,21,30,13
1461662145710836,-22,16,-10,-58,-29,-10,-53,1
1461662145710836,19,20,11,-5,-15,-62,-46,-9
1461662145710836,-18,19,14,22,13,5,1,16
1461662145710836,11,21,6,17,8,2,76,7
1461662145749840,-21,18,-6,-26,4,87,-2,-16
1461662145749840,69,22,-1,9,-18,-25,-23,28
1461662145750841,-18,19,-23,-61,-27,-30,-25,-8
1461662145750841,-4,21,-29,-38,-17,-19,18,-3
1461662145752842,17,18,72,16,8,14,33,3
1461662145752842,-23,21,1,87,75,45,4,-15
1461662145755844,30,18,0,-73,-31,-23,-10,-3
1461662145755844,-48,22,41,110,71,18,-18,2
1461662145770863,3,17,-27,-65,-18,-24,0,7
1461662145770863,-10,22,-14,-19,-11,0,-9,-18
1461662145770863,-7,18,7,10,6,6,20,0
1461662145770863,-2,22,-4,-5,-17,-7,-37,-29
1461662145784864,24,17,-23,-4,-11,-14,13,30
1461662145784864,-24,24,-1,-25,-12,22,68,14
1461662145791869,-50,19,-1,16,4,-3,-74,-46
1461662145791869,16,20,-18,-6,-22,-56,-44,18
1461662145815886,21,17,7,8,-2,4,46,12
1461662145815886,-14,21,-17,-42,-6,2,13,-10
1461662145816886,24,17,12,28,9,50,-13,6
1461662145816886,-37,19,2,-75,-42,-22,-31,-18
1461662145821890,37,17,-5,42,30,-4,12,-3
1461662145821890,-17,21,14,65,43,13,6,7
1461662145829895,-5,17,5,-6,6,-7,12,5
1461662145829895,-4,19,5,34,6,9,6,1
1461662145844920,19,17,-21,-36,-16,-14,-5,0
1461662145844920,6,26,4,-20,-11,2,-12,-12
1461662145851971,13,18,-5,20,2,-18,-2,2
1461662145851971,35,20,-10,-6,-9,1,-5,-3
1461662145867986,-14,16,-14,-22,-15,-12,3,-7
1461662145867986,-54,25,-5,-17,-8,14,-8,10
1461662145868956,-7,17,10,11,3,-43,7,14
1461662145868956,-25,19,-18,3,5,34,27,-8
1461662145881961,17,16,5,8,5,-5,-10,-22
1461662145881961,42,23,6,-14,-13,-3,-17,8
1461662145889968,-7,17,-11,-41,-18,46,9,13
1461662145889968,-24,18,9,32,22,-3,-1,0
1461662145904950,3,16,24,-1,-3,-5,0,-9
1461662145904950,16,29,-17,15,-1,-7,6,-3
1461662145911983,8,17,29,46,30,-11,9,14
1461662145911983,12,19,-5,-6,12,-4,-8,2
1461662145927982,-14,16,-27,-11,-5,6,2,3
1461662145927982,25,25,14,17,6,-7,-9,-9
1461662145928982,-6,18,-8,0,-3,-6,-5,-5
1461662145928982,-10,17,10,-3,-6,-12,-3,4
1461662145941990,-13,15,-5,-14,-14,-13,-17,-15
1461662145941990,24,16,-4,-24,-22,-41,-12,-2
1461662145949996,-19,16,-12,5,-4,15,16,-8
1461662145949996,1,16,-3,-1,3,4,5,-2
1461662145965030,-39,15,-7,-7,0,50,44,16
1461662145965030,10,30,-5,-14,-12,-15,-29,-4
1461662145989009,-15,16,12,2,0,-16,-26,-9
1461662145989009,24,17,-5,-15,-4,-16,11,10
1461662145991026,21,18,-13,-9,-12,-22,-23,-7
1461662145991026,-18,24,9,-46,-19,10,12,-5
1461662145992027,31,16,23,92,42,8,3,13
1461662145992027,-4,-3,4,-22,-3,-1,-9,-3
1461662146002056,-14,15,-7,31,22,4,2,-5
1461662146002056,-11,4,-1,-16,-12,10,5,-3
1461662146010079,4,-37,-8,-27,-20,-13,-3,-4
1461662146010079,-12,-128,-7,5,-2,5,-4,-2
1461662146025034,5,-6,-5,-13,-7,-22,-8,-1
1461662146025034,-15,49,-6,0,2,2,2,-15
1461662146032056,6,-58,-7,-10,-5,12,4,4
1461662146032056,59,-27,17,12,9,42,13,15
1461662146048051,-9,125,-6,-15,-8,-38,-22,2
1461662146048051,-20,109,-5,10,10,52,11,-2
1461662146049080,-21,1,-13,-16,-3,-5,16,-11
1461662146049080,-9,-38,-6,-1,-7,1,-10,5
1461662146062118,17,127,4,-5,0,-8,-1,-5
1461662146062118,-5,127,9,7,3,-10,-14,-2
1461662146070124,14,66,-6,-14,-12,-25,-8,8
1461662146070124,-11,37,-15,-21,-13,-16,-12,-10
1461662146093084,0,127,2,9,8,3,5,-3
1461662146093084,0,-13,12,16,3,-4,0,-1
1461662146094085,6,-128,-21,-32,-8,5,2,2
1461662146094085,-5,-128,10,31,12,-5,0,-2
1461662146107092,-4,6,7,4,2,-8,-6,0
1461662146107092,-3,90,-6,-5,-6,4,4,-2
1461662146115098,6,10,-3,-4,-3,-7,-3,6
1461662146115098,-13,9,-8,1,-2,-4,-5,-6
1461662146122103,-5,89,1,-4,-8,11,-4,-8
1461662146122103,4,124,2,-2,-4,-16,-6,7
1461662146130108,5,68,10,7,0,-9,1,6
1461662146130108,-10,38,-6,-5,3,3,-14,-23
1461662146145119,-5,18,5,4,2,11,-11,-9
1461662146145119,4,-5,-2,-5,-4,-13,11,0
1461662146152124,-1,-15,0,-7,0,0,1,7
1461662146152124,-5,-21,-3,8,5,4,2,5
1461662146176139,-5,-58,-5,-4,-2,-13,-6,-7
1461662146176139,-1,-37,-2,1,1,7,1,1
1461662146177140,5,-34,6,4,2,5,2,0
1461662146177140,0,-29,1,1,-1,-10,-1,-1
1461662146190183,-7,-35,-2,-2,-6,0,-4,-5
1461662146190183,0,-41,-10,-9,-5,-4,-2,5
1461662146191184,1,-42,6,6,1,-1,-1,-2
1461662146191184,-6,-25,8,-10,2,3,2,-3
1461662146205195,-4,-27,-9,7,2,3,1,-1
1461662146205195,-1,-20,-17,-15,-10,-2,0,1
1461662146212259,3,-28,1,11,7,4,0,1
1461662146212259,0,1,-4,-9,1,3,2,1
1461662146229213,-4,15,9,3,-4,3,-1,-4
1461662146229213,4,18,9,16,7,-8,-2,6
1461662146235247,-2,-15,-13,-9,-8,2,-1,-3
1461662146235247,-2,11,-1,-1,1,1,3,0
1461662146250255,-1,1,-2,-14,-6,-3,-2,-2
1461662146250255,-2,-2,-1,-4,-3,-7,-3,-1
1461662146251228,-2,-13,2,-4,2,5,1,0
1461662146251228,-1,-5,0,7,1,-10,1,-1
1461662146273258,-3,-9,-3,-4,-1,11,-3,-3
1461662146273258,-2,-22,-2,0,1,10,6,1
1461662146273258,3,-5,5,1,-1,-4,2,3
1461662146273258,-3,-13,-8,1,0,-1,-4,-3
1461662146287292,-2,-6,0,0,-1,2,2,0
1461662146287292,1,-7,-1,-1,-3,-4,-2,1
1461662146295297,-1,-10,1,-3,0,0,-2,-2
1461662146295297,0,-4,0,6,2,4,1,0
1461662146310307,0,-4,1,-4,-2,-6,-1,-1
1461662146310307,-1,-8,-6,-2,0,-1,-1,-1
1461662146311272,-2,-17,-2,-5,1,-2,-1,0
1461662146311272,-1,-4,3,6,0,0,1,0
1461662146324291,0,-1,-2,0,-1,-2,0,-2
1461662146324291,-1,-2,-3,-6,-5,-7,-2,-2
1461662146332323,0,6,7,21,10,3,0,0
1461662146332323,0,2,-4,-8,-1,4,2,-1
1461662146349338,-1,-1,3,4,2,0,-1,-1
1461662146349338,0,2,0,-5,-2,-6,-2,-1
1461662146355300,-2,-5,-4,-5,-3,-2,-1,-2
1461662146355300,-4,-1,-1,-1,-5,-2,0,-1
1461662146370370,-2,5,-5,-5,-1,-1,-2,-2
1461662146370370,-2,3,0,0,-2,-5,-3,1
1461662146371315,0,5,-3,-3,-3,2,0,0
1461662146371315,2,0,2,1,1,2,1,1
1461662146385329,-5,-3,-5,-6,-3,-5,1,-3
1461662146385329,2,-1,1,1,-3,-3,-2,0
1461662146392335,2,0,-1,-2,0,-3,0,0
1461662146392335,-2,-1,0,0,-1,1,-1,-2
1461662146407340,1,4,0,-1,-1,9,-1,-1
1461662146407340,1,-2,-4,-6,-2,0,1,0
1461662146415402,-4,-3,0,3,0,3,0,0
1461662146415402,-3,-2,-3,-2,-1,-6,1,-3
1461662146430354,0,3,-2,-11,-4,1,-1,-2
1461662146430354,-5,-5,-3,-7,-6,-1,-1,-2
1461662146431355,4,3,4,19,12,4,0,1
1461662146431355,0,4,5,7,5,-3,-1,-1
1461662146444379,-1,-5,3,7,4,-2,-3,-2
1461662146444379,0,1,-4,-4,-2,1,-2,0
1461662146452385,-1,1,-3,-16,-8,-5,-2,-1
1461662146452385,-3,-3,-3,0,-1,4,-1,-3
1461662146467439,-2,-6,-5,-5,-4,-4,-2,-2
1461662146467439,0,-2,-1,3,0,-4,0,-1
1461662146475385,-1,0,-2,-6,-3,-2,-1,-1
1461662146475385,5,-1,-3,-3,-1,4,1,2
1461662146490396,0,4,3,-1,-3,-4,-2,-2
1461662146490396,0,-5,-4,2,1,-1,-1,-1
1461662146491397,1,7,1,-2,-1,0,0,-1
1461662146491397,-8,-15,-3,-5,-3,3,0,-5
1461662146504471,-1,-1,-3,2,0,-7,-2,-1
1461662146504471,-3,-3,3,1,2,1,0,-1
1461662146512470,-2,2,-3,-7,-3,2,0,0
1461662146512470,-1,-4,-3,2,-1,-2,-2,-3
1461662146527435,-4,-2,-4,-1,0,-1,-2,-2
1461662146527435,4,7,2,5,2,2,1,0
1461662146543446,1,0,-10,-20,-6,-5,-2,-2
1461662146543446,-3,-4,4,7,-3,-3,-3,-3
1461662146550497,4,6,1,1,1,0,0,-2
1461662146550497,2,-2,1,7,2,-2,-2,0
1461662146551467,-3,-3,0,2,-1,0,-1,0
1461662146551467,-3,0,-6,-12,-2,1,1,-2
1461662146564474,-1,-2,2,-7,-5,-4,-3,-3
1461662146564474,-1,-4,-3,-4,-1,1,0,0
1461662146572461,-2,-3,-1,12,6,3,1,0
1461662146572461,-1,0,-1,-3,0,0,-1,-2
1461662146587467,-4,-3,5,3,-1,-3,-2,-1
1461662146587467,0,-3,-5,-6,-2,0,-1,-1
1461662146595471,-1,-5,1,-2,-4,-4,-1,-1
1461662146595471,0,3,-2,0,-2,0,0,-1
1461662146610495,-2,-8,-6,0,0,3,0,-2
1461662146610495,3,6,-1,-4,-2,-3,0,0
1461662146626493,-1,-3,1,0,-1,2,0,0
1461662146626493,-3,0,0,1,1,-3,-3,-3
1461662146627494,-1,0,-3,-2,-2,-2,-2,0
1461662146627494,-4,-1,2,1,-1,2,0,-2
1461662146632497,2,1,2,1,1,-1,-1,-1
1461662146632497,-7,-1,0,-4,-1,1,-1,-1
1461662146647508,-2,-7,-6,-3,0,0,0,0
1461662146647508,1,1,0,0,-1,-1,-1,1
1461662146655515,1,1,1,6,2,-2,-1,-1
1461662146655515,1,-1,-3,-14,-5,-2,-2,0
1461662146670582,-1,1,3,3,-5,-5,-4,-1
1461662146670582,1,1,7,18,10,3,1,1
1461662146671525,-1,-2,-2,-1,2,0,0,0
1461662146671525,-1,-2,-3,1,-1,0,-1,-1
1461662146685536,-2,-3,-9,-11,-5,-3,-1,-3
1461662146685536,-1,-2,-1,-7,-4,-3,0,-3
1461662146692541,-1,2,2,-3,-3,-1,-1,-2
1461662146692541,-1,-2,-5,-10,-5,-3,-2,0
1461662146707579,2,6,5,15,8,1,1,0
1461662146707579,-1,-6,-2,0,1,-2,-1,-1
1461662146715619,-1,-2,-3,-2,1,0,-1,0
1461662146715619,1,2,2,-4,-2,-1,0,0
1461662146730568,-1,-2,-3,-5,-5,-3,-3,-3
1461662146730568,0,1,2,1,-1,1,0,1
1461662146731568,-4,-7,-2,-7,-2,-1,-1,-1
1461662146731568,-3,-3,-3,0,-2,-1,-3,-4
1461662146744577,-1,-1,-1,3,0,-2,-3,-2
1461662146744577,-1,0,-2,-4,-1,0,0,0
1461662146752584,1,-1,-1,-2,-3,-2,-2,0
1461662146752584,-1,1,1,2,1,0,-2,-1
1461662146776598,-3,-3,-2,-2,-2,-2,-1,-1
1461662146776598,0,-2,-7,-17,-6,-4,-3,-3
1461662146776598,-2,-4,4,9,-2,1,0,-2
1461662146776598,-1,-1,-2,7,3,1,1,0
1461662146798615,-1,-1,2,1,-1,-1,-1,-1
1461662146798615,-1,-1,2,5,2,-2,0,1
1461662146799614,-1,1,-4,-5,-1,-2,0,-1
1461662146799614,1,1,-2,-14,-5,-3,-1,-2
1461662146812625,-4,-6,-1,13,4,2,0,-1
1461662146812625,-1,-2,-2,-3,-4,-1,-1,-1
1461662146813624,-1,2,1,3,0,-1,0,1
1461662146813624,-1,0,0,3,1,1,-1,-3
1461662146827637,-1,1,-1,-9,-4,-3,-2,0
1461662146827637,0,-2,1,0,-1,-2,-2,-1
1461662146835643,0,-3,-1,-1,1,1,-2,-1
1461662146835643,-2,-1,0,2,0,-2,0,-1
1461662146850652,1,2,2,-3,-1,-1,1,-1
1461662146850652,-2,-1,-3,0,1,1,0,-1
1461662146851652,-3,-9,-5,-7,-4,-2,2,-1
1461662146851652,2,-1,-2,3,0,-2,-1,-1
1461662146864661,-3,-3,0,-1,-1,-1,-1,-1
1461662146864661,0,2,3,5,1,-2,-1,1
1461662146872667,2,4,-3,-6,-2,0,0,-1
1461662146872667,-2,-3,1,5,0,1,-1,-1
1461662146887678,-3,3,3,1,-2,-3,-3,-3
1461662146887678,0,-3,-4,-2,2,1,-1,-1
1461662146895683,4,1,-1,2,1,0,0,1
1461662146895683,1,-1,-2,1,0,0,-1,-1
1461662146910694,-1,-2,-6,-9,-4,-2,-2,-3
1461662146910694,-3,-1,-2,-3,-4,-2,0,-2
1461662146911695,-4,-3,-5,-22,-8,-3,-5,-3
1461662146911695,0,3,8,40,14,3,1,-1
1461662146926704,1,1,0,-3,-2,-2,-1,-1
1461662146926704,-4,-7,0,0,-2,0,0,0
1461662146932714,-1,-1,0,2,-1,0,-1,0
1461662146932714,-3,-4,-6,-15,-7,-1,-1,-2
1461662146947732,-2,-3,-4,-3,-1,-2,-3,-2
1461662146947732,1,4,2,-3,-3,0,-1,0
1461662146954725,-1,-2,0,5,0,0,0,-1
1461662146954725,-3,-1,0,-8,-3,-3,-2,-2
1461662146970795,-2,-2,-2,1,-1,1,1,-1
1461662146970795,1,-1,-3,-3,-1,-1,-1,0
1461662146971736,0,0,1,4,0,0,-2,-1
1461662146971736,-4,-2,-1,-3,-2,-2,-1,-4
1461662146984765,-1,-7,-6,-8,-4,-2,-1,0
1461662146984765,-1,-2,0,0,-3,-2,-1,0
1461662146992763,0,3,-7,-9,-2,-1,0,0
1461662146992763,-3,-4,5,5,-2,-2,-2,-2
1461662147007812,-1,-2,0,-6,-3,-1,-1,-1
1461662147007812,5,7,0,4,0,-1,0,0
1461662147014772,-3,-7,-3,4,3,-3,-1,-1
1461662147014772,-2,-5,-2,-13,-6,-3,-3,-2
1461662147038785,-4,1,-3,-4,-4,-1,0,-2
1461662147038785,0,-1,1,2,2,0,1,1
1461662147039786,-1,-1,-1,-1,-2,0,-1,-1
1461662147039786,2,1,0,-1,0,-3,-1,-2
1461662147044789,-2,0,2,0,-1,-1,-3,-1
1461662147044789,0,2,-2,-4,-1,-1,-1,0
1461662147052794,2,4,3,4,0,-1,0,0
1461662147052794,-3,-5,-4,-3,-2,-1,-1,-1
1461662147091823,0,-4,-3,2,1,0,-1,0
1461662147091823,-2,-3,-3,-4,-5,-2,-1,-2
1461662147092822,1,1,3,5,3,1,0,0
1461662147092822,-1,1,-2,-1,0,-1,-2,-1
1461662147106833,-2,-3,-1,-1,0,-2,-2,-2
1461662147106833,0,1,-2,-6,-1,-1,-2,0
1461662147107832,-2,-1,0,5,2,0,0,-1
1461662147107832,-1,4,-5,-11,-3,-2,0,-1
1461662147108834,-3,-10,-1,7,3,0,0,-2
1461662147108834,-5,-5,4,6,-2,-2,-2,-5
1461662147111836,-1,-5,-4,-11,-1,-1,0,0
1461662147111836,-3,-3,3,21,4,0,-1,1
1461662147126846,-1,0,-1,-7,-3,-1,0,0
1461662147126846,1,1,-3,-3,-3,-1,-2,-1
1461662147134870,0,2,0,3,1,0,-1,-1
1461662147134870,2,2,-1,-3,-1,0,0,-1
1461662147149874,-3,-6,-3,-2,-1,-3,-2,-3
1461662147149874,-7,-3,1,1,0,1,0,-1
1461662147157887,-1,1,0,-4,-3,-3,0,0
1461662147157887,-3,-3,-6,-7,-1,-1,-2,0
1461662147164934,3,6,5,3,-1,0,-1,0
1461662147164934,3,0,-4,-5,1,1,1,1
1461662147171879,-4,-3,-3,-1,-3,0,-3,-1
1461662147171879,-2,-2,1,5,1,-1,-1,-4
1461662147186947,-1,0,-2,0,-1,-1,-3,-2
1461662147186947,1,0,-4,-4,-1,-1,-2,2
1461662147194954,1,1,2,1,-3,0,-1,-1
1461662147194954,-1,-2,-2,-10,-4,-2,-1,-2
1461662147209963,-1,0,1,-3,-3,-1,-3,-1
1461662147209963,1,-1,1,18,8,3,1,-2
1461662147217969,-1,2,3,4,-1,-1,-2,-2
1461662147217969,-2,-3,-6,-11,-4,-2,-2,0
1461662147240951,-2,-3,-3,3,0,-1,0,-1
1461662147240951,0,2,2,-5,-3,-2,-1,-2
1461662147241953,-1,-2,-1,4,0,1,-1,-1
1461662147241953,1,1,-3,-6,-1,-2,0,-2
1461662147246955,-3,-1,-6,-14,-4,-1,0,-2
1461662147246955,1,-3,7,17,2,0,-1,1
1461662147254938,-2,-2,-4,-3,-1,-1,0,-1
1461662147254938,-3,-4,2,3,-2,-1,-2,-2
1461662147270018,-2,0,-3,-2,-1,-2,-2,-1
1461662147270018,1,-1,-4,-9,-3,-1,-1,-1
1461662147278011,1,1,1,4,0,-1,-2,0
1461662147278011,-2,-1,-2,-2,-1,0,-2,0
1461662147293022,2,1,0,3,1,0,1,0
1461662147293022,-1,1,-2,-9,-4,-2,0,0
1461662147293965,0,-2,2,1,-1,-1,0,-2
1461662147293965,-1,-1,-2,10,3,0,-2,-1
1461662147307033,-1,-3,-1,0,-1,-2,-2,-2
1461662147307033,0,-2,0,0,1,-1,-1,0
1461662147315039,-1,-1,-1,-8,-2,-2,0,3
1461662147315039,-1,-1,0,-1,-1,-1,-2,-1
1461662147330005,1,4,-2,0,-2,1,0,-1
1461662147330005,-2,1,-3,-8,-3,-1,-2,1
1461662147338024,-1,0,-1,-4,0,-2,-1,0
1461662147338024,-2,-6,-4,-6,-2,0,-1,0
1461662147353031,1,2,2,5,0,-2,0,-1
1461662147353031,0,-1,-2,-7,-1,0,-1,-2
1461662147354031,-2,-2,1,7,2,1,2,-2
1461662147354031,-3,-4,-2,-7,-1,-1,-2,-1
1461662147367031,-3,-5,-2,-2,-2,-1,-3,1
1461662147367031,1,-3,-2,2,-1,-2,-1,-1
1461662147383087,0,2,0,-2,-1,-2,0,-1
1461662147383087,0,0,-4,-2,-4,-1,0,-2
1461662147390072,0,-1,3,1,0,-1,0,-1
1461662147390072,-2,0,-1,-1,-1,1,0,0
1461662147398077,0,-3,-5,0,-1,0,-1,-2
1461662147398077,-3,-2,1,0,-4,-1,-1,-3
1461662147413088,0,-1,-2,0,1,-2,-3,-1
1461662147413088,0,-4,-1,-4,-1,0,1,0
1461662147414064,-1,-4,-2,-1,-1,-2,0,-1
1461662147414064,-1,3,-1,-4,-4,-2,0,-3
1461662147427059,-1,1,2,12,5,-1,-2,-2
1461662147427059,-2,1,1,2,0,-2,-1,1
1461662147435104,0,-1,0,-13,-4,-2,-1,-1
1461662147435104,-2,-4,0,-3,-3,-2,-2,-4
1461662147450077,2,3,0,7,1,-2,1,-2
1461662147450077,-4,-5,2,-3,-5,-2,-2,-4
1461662147458140,-1,-5,1,11,6,3,1,0
1461662147458140,-1,4,-2,-5,-1,0,-1,-1
1461662147473092,-2,-7,-5,-13,-4,-2,-1,-2
1461662147473092,1,0,-2,-2,-2,-1,-1,0
1461662147474094,0,5,1,-6,-4,-2,-1,-2
1461662147474094,-7,-10,-4,2,1,-1,-3,-3
1461662147487133,-1,2,-2,-1,-2,0,0,0
1461662147487133,1,1,-2,-2,1,-1,0,-1
1461662147495107,-1,0,0,-3,0,0,-2,0
1461662147495107,0,2,0,5,2,-1,0,-1
1461662147510147,-2,-2,1,0,-1,-2,-2,-1
1461662147510147,0,1,-2,-2,1,0,0,-1
1461662147518184,0,-2,0,3,-2,-2,-1,-2
1461662147518184,-3,-2,2,3,-1,-2,-1,-1
1461662147533152,-1,-3,-5,-12,-6,-2,-1,0
1461662147533152,-1,-1,1,2,2,0,0,0
1461662147534152,3,1,0,-3,-3,-1,-1,0
1461662147534152,-7,-9,-3,3,1,-1,-1,-2
1461662147547172,-3,-1,-3,2,-2,0,-1,-2
1461662147547172,4,5,0,3,0,0,0,1
1461662147555150,-6,-11,1,6,3,0,0,-2
1461662147555150,4,-4,-7,-18,-4,-2,0,0
1461662147570189,0,0,6,17,2,-2,0,0
1461662147570189,-8,-8,-4,-9,-6,-2,-3,-2
1461662147578181,1,4,-5,6,2,-1,-1,-1
1461662147578181,3,5,2,2,0,0,-1,-3
1461662147593176,2,-2,-3,-8,-3,-1,-2,-1
1461662147593176,0,0,1,0,-4,-3,-1,-2
1461662147594176,1,0,0,0,-1,-2,0,3
1461662147594176,-3,-4,-1,1,0,0,-3,-4
1461662147607186,0,2,2,-1,1,0,0,0
1461662147607186,-2,-5,-4,-2,-1,-3,-1,-3
1461662147615203,-3,-2,-1,-8,-4,-1,-1,-2
1461662147615203,0,1,0,5,0,-1,0,1
1461662147630214,-2,-1,-2,-6,-1,-1,-2,-2
1461662147630214,0,-2,0,-3,-1,-1,-2,0
1461662147645224,4,8,5,5,3,0,0,0
1461662147645224,0,0,-3,-3,-2,-1,-3,1
1461662147653257,-6,-5,-2,-3,-2,-1,0,-1
1461662147653257,-1,-7,0,10,4,1,0,1
1461662147654258,-2,6,-2,-1,-2,-2,-2,0
1461662147654258,-4,-11,-1,-1,-3,-1,-1,-2
1461662147667268,0,-2,-2,-6,-2,-3,0,1
1461662147667268,1,-2,-5,-7,-3,-1,1,0
1461662147675251,-2,-2,-2,-4,-4,-1,-1,-2
1461662147675251,-3,-5,-2,-3,-4,-2,-2,-2
1461662147690257,4,3,1,1,0,-2,-2,1
1461662147690257,-4,1,2,6,2,-2,0,-1
1461662147698289,2,-2,-2,-7,-2,0,0,1
1461662147698289,-1,2,0,0,0,-2,-2,-2
1461662147713320,-2,-6,0,-2,0,0,-3,-4
1461662147713320,2,2,-5,-9,-3,-1,-1,0
1461662147714279,-1,1,3,0,-3,-2,-1,-3
1461662147714279,3,5,2,11,5,0,-1,0
1461662147727283,-1,-1,-1,5,2,1,1,1
1461662147727283,2,3,2,4,0,0,-1,1
1461662147735340,-1,-3,-8,-11,-4,-1,-2,-1
1461662147735340,-2,3,-1,-5,-1,-1,0,-2
1461662147750351,-2,-4,3,6,-1,0,-1,-3
1461662147750351,-5,-11,-4,-2,-1,0,-1,-1
1461662147758351,-4,-7,-3,-7,-3,-3,-1,-1
1461662147758351,-3,-2,2,7,2,-1,-2,-2
1461662147773315,0,12,-2,-4,1,-1,0,1
1461662147773315,4,5,2,1,1,0,0,-2
1461662147773315,-2,-4,-3,1,0,-1,-1,-1
1461662147773315,-3,-4,-9,-16,-4,-3,-2,-1
1461662147787378,1,3,2,-6,-5,-2,-1,-1
1461662147787378,1,-1,1,4,5,1,0,-2
1461662147795327,-2,0,0,7,5,2,0,-2
1461662147795327,-2,-4,-2,-5,-4,-2,-3,-2
1461662147810334,-1,-2,-1,-3,-1,-1,-1,-2
1461662147810334,0,-2,0,-3,-5,-3,-1,-1
1461662147818373,-2,-3,-5,2,3,0,-1,0
1461662147818373,-1,-5,-1,-1,-2,-3,-2,-3
1461662147833363,-2,4,-1,1,0,0,0,1
1461662147833363,-8,-15,-3,-3,-2,-1,0,0
1461662147833363,2,2,-2,-1,-2,-1,-1,0
1461662147833363,-2,1,1,-3,-4,-1,-1,-3
1461662147847356,-1,0,-3,0,1,-1,0,-1
1461662147847356,-1,4,1,-3,-2,-1,0,-1
1461662147855363,-5,-5,1,3,1,1,0,-1
1461662147855363,-3,-4,2,11,3,0,-1,-1
1461662147870373,-4,-4,-2,-5,-2,-2,-1,-2
1461662147870373,3,-1,-2,-3,-1,1,-2,1
1461662147878377,1,0,-6,-7,-2,-1,-3,-2
1461662147878377,3,0,7,14,4,0,-1,0
1461662147893389,-5,-7,-7,-3,0,1,0,0
1461662147893389,2,9,1,-2,-2,0,0,-1
1461662147893389,-1,-3,2,0,-3,-3,0,-2
1461662147893389,-6,-2,-5,-10,-5,-1,-2,-4
1461662147907399,0,-8,-3,-1,-3,-4,-4,-3
1461662147907399,5,11,-1,-10,-2,-1,1,1
1461662147923409,3,5,3,-1,-2,0,1,-1
1461662147923409,-1,2,2,0,-3,-2,-2,-1
1461662147938420,-3,-2,-5,-5,-3,0,-1,-1
1461662147938420,-4,-3,-2,-2,-2,-1,1,-3
1461662147939420,0,-3,-1,1,1,0,-1,2
1461662147939420,0,-1,-1,-15,-6,-2,-1,-2
1461662147952431,-1,1,-2,8,-1,0,-1,-2
1461662147952431,6,9,6,21,8,2,1,2
1461662147960469,-5,-15,0,0,0,-2,-4,-2
1461662147960469,-4,5,-4,-10,-4,0,1,-2
1461662147967501,-2,2,-2,-21,-9,-3,-4,-2
1461662147967501,1,-11,7,8,2,-1,-2,3
1461662147974461,-3,2,-1,8,3,0,2,1
1461662147974461,0,-5,-4,-2,-1,-3,0,2
1461662147991458,-6,0,2,13,2,0,0,-4
1461662147991458,5,25,4,-4,-3,-5,-6,-2
1461662147998464,4,-4,4,-1,-1,-2,-7,-1
1461662147998464,0,2,-5,-7,-1,0,1,-4
1461662148012531,2,-8,-2,4,3,0,5,0
1461662148012531,-5,-17,-9,-10,-6,-4,-4,1
1461662148020537,5,20,-1,-4,-3,0,1,0
1461662148020537,-4,-8,-2,-8,-8,-4,-6,-7
1461662148027483,1,-7,-2,11,7,8,9,4
1461662148027483,3,8,1,0,1,1,-6,3
1461662148034494,-13,-7,-14,-16,-4,-2,0,-4
1461662148034494,3,-1,22,42,16,4,3,5
1461662148049499,3,-1,-6,-24,-11,-9,-1,-1
1461662148049499,1,-2,4,9,2,0,-11,-5
1461662148058536,-8,-1,-4,-20,-13,-2,1,-3
1461662148058536,-5,-5,-19,22,13,-1,-2,-3
1461662148072515,-3,7,5,-3,2,-2,-4,1
1461662148072515,-5,-25,0,9,4,1,2,6
1461662148081523,-1,-1,-1,9,7,3,-2,-6
1461662148081523,0,3,-5,-47,-19,9,41,-4
1461662148087584,-5,-32,-4,26,11,-1,-16,4
1461662148087584,0,27,10,13,0,-11,-10,-2
1461662148094529,-2,5,4,21,2,-5,-8,3
1461662148094529,-12,-18,-14,-20,-5,-3,-11,-4
1461662148109604,4,13,2,4,2,5,21,-4
1461662148109604,-3,-8,-26,-46,-16,-1,6,0
1461662148117605,11,20,18,22,-2,1,41,3
1461662148117605,5,5,20,6,0,-5,-38,-6
1461662148132615,-19,-25,-18,6,-10,-22,-56,-16
1461662148132615,9,-6,-1,20,13,14,17,8
1461662148140562,1,-5,-12,-35,-5,3,7,9
1461662148140562,9,30,-5,-26,-21,-27,-2,2
1461662148155608,-17,-33,13,45,23,-1,9,-5
1461662148155608,7,11,3,-52,-25,-11,7,-1
1461662148156576,-5,-26,-14,20,16,32,11,-1
1461662148156576,2,-31,-6,31,15,14,-32,3
1461662148169642,21,28,-16,-58,-27,-37,-19,4
1461662148169642,-4,48,12,-20,-24,-23,-1,-9
1461662148177601,-18,2,12,-1,3,-8,6,-8
1461662148177601,-7,21,-10,14,11,29,47,5
1461662148192702,-11,12,29,-30,-11,29,23,-2
1461662148192702,11,-25,-20,76,46,16,-20,-2
1461662148200754,1,-6,-12,-51,-34,-13,48,3
1461662148200754,-23,-13,11,16,-3,8,-42,-8
1461662148215708,38,24,-10,11,16,-8,-22,0
1461662148215708,-28,-26,-11,-44,-33,-55,-85,-18
1461662148216736,16,-26,-2,-21,-14,-20,-63,-18
1461662148216736,-3,5,-2,-45,-22,-14,78,-6
1461662148229719,-7,-13,-17,-7,-25,-8,63,22
1461662148229719,18,-8,16,20,17,35,19,22
1461662148237724,26,-29,-36,-38,-11,-20,-72,-5
1461662148237724,-40,-116,3,24,2,-35,-30,-32
1461662148252734,6,2,32,37,11,25,-20,1
1461662148252734,-25,-9,18,51,15,12,49,-6
1461662148260739,-15,13,25,-9,1,17,22,4
1461662148260739,20,31,-17,-6,10,18,27,10
1461662148275749,7,36,-2,-44,-9,-11,-26,-5
1461662148275749,-6,-44,-29,38,9,12,59,0
1461662148276750,-2,-112,-12,-27,-3,20,-22,4
1461662148276750,8,-26,11,22,13,0,5,4
1461662148290760,16,19,20,85,37,-7,-48,15
1461662148290760,-28,60,-12,-49,-34,-37,-62,-29
1461662148297765,0,127,2,14,9,-13,-1,-4
1461662148297765,6,123,7,21,-6,9,45,17
1461662148312774,0,119,3,-75,-6,54,83,20
1461662148312774,-7,121,-11,20,7,-9,-55,-20
1461662148320782,19,82,-4,-22,-19,-23,-46,-4
1461662148320782,-16,-36,66,64,38,9,26,4
1461662148335820,-10,46,-9,55,15,-7,-72,-25
1461662148335820,4,35,-24,-58,-8,3,2,0
1461662148336822,24,11,33,48,17,-7,49,26
1461662148336822,7,-62,-31,-29,-33,7,32,2
1461662148351802,-24,-54,2,-22,11,18,37,-11
1461662148351802,16,69,28,58,3,-2,-12,16
1461662148357822,8,59,-49,11,21,23,30,2
1461662148357822,-3,-52,-10,-45,-19,-7,-40,1
1461662148371825,-13,-31,-5,-31,-33,-21,74,-1
1461662148371825,8,8,-20,-74,-9,23,-41,14
1461662148380823,-44,-19,40,9,-23,-78,-109,-35
1461662148380823,0,-55,1,43,14,-39,-54,-1
1461662148395874,-10,-16,-24,-9,-2,4,-37,-29
1461662148395874,25,60,29,-6,-5,6,44,6
1461662148395874,44,3,-2,-23,5,59,127,15
1461662148395874,-32,-49,-10,4,9,12,-49,-17
1461662148409883,-19,28,-1,72,22,-28,-31,11
1461662148409883,-13,48,-29,-98,-22,1,19,4
1461662148425854,-38,29,33,17,0,17,-2,-1
1461662148425854,37,-20,4,-10,-6,29,17,8
1461662148431898,33,39,15,-7,3,-13,98,23
1461662148431898,-3,32,-25,-46,-14,-28,-67,-18
1461662148440865,5,25,1,75,26,-13,-71,-6
1461662148440865,16,-10,-3,-5,2,13,47,-5
1461662148454876,-21,41,-4,-43,-12,14,-29,-9
1461662148454876,-28,29,7,18,9,-5,65,25
1461662148462945,-10,24,-22,-98,-41,-38,15,6
1461662148462945,12,-7,8,55,10,18,-66,1
1461662148478895,-17,34,-9,15,17,-4,-48,-38
1461662148478895,23,33,14,1,-22,-34,-3,0
1461662148479895,-11,13,8,-25,-5,41,62,11
1461662148479895,-20,-4,-26,57,42,13,-5,-7
1461662148491902,17,36,17,5,3,-4,-4,3
1461662148491902,-1,30,34,52,37,37,11,8
1461662148500970,-10,3,-39,-18,17,43,76,2
1461662148500970,48,1,21,-128,-30,-4,-75,-5
1461662148515919,-53,38,-32,56,-10,-72,-60,7
1461662148515919,-1,26,39,38,10,-8,25,-2
1461662148515919,0,-1,-34,3,-6,43,63,14
1461662148515919,-22,7,-8,38,28,1,-33,-25
1461662148529930,43,43,14,-26,-9,-14,-35,26
1461662148529930,-17,24,1,-26,0,41,-61,-31
1461662148545940,4,2,-6,2,-41,-83,-21,-5
1461662148545940,10,7,-13,-55,-26,-29,19,38
1461662148551944,11,27,8,-66,-21,19,46,-19
1461662148551944,41,22,12,33,18,12,32,9
1461662148560950,-29,-3,20,13,-12,-15,-109,-20
1461662148560950,-30,13,-40,38,11,0,22,-15
1461662148575964,-15,25,31,-50,-35,-3,-13,-6
1461662148575964,-18,22,-6,-60,-3,14,42,-7
1461662148575964,51,3,11,46,25,9,40,3
1461662148575964,-26,13,44,85,42,-3,-12,9
1461662148589971,-1,27,-31,-90,-28,26,-17,-39
1461662148589971,-19,19,-31,-1,-1,7,1,-5
1461662148596976,-26,-1,-2,-55,-10,5,9,49
1461662148596976,49,12,-29,-105,-57,-76,-40,-6
1461662148611987,11,28,21,76,35,6,21,23
1461662148611987,1,22,0,51,20,22,-22,-24
1461662148620004,-16,-18,-1,5,-15,-25,49,-16
1461662148620004,-33,10,10,-15,4,15,-37,-10
1461662148636003,74,22,-32,-63,-21,-31,-51,2
1461662148636003,-46,22,34,51,-24,-28,22,23
1461662148636003,33,-9,7,23,25,49,37,11
1461662148636003,24,12,-7,-24,1,38,38,-20
1461662148650025,-40,23,-44,-51,-24,2,-33,-23
1461662148650025,-44,20,-8,83,54,-28,12,-9
1461662148657057,-15,-9,46,-48,4,-1,-14,17
1461662148657057,19,14,-32,-1,-3,-4,43,6
1461662148672029,5,28,-3,-93,-31,26,66,10
1461662148672029,91,19,-37,-15,5,-14,-107,-11
1461662148681037,-60,-7,19,78,20,-36,-59,-6
1461662148681037,33,12,40,-12,-2,21,16,10
1461662148695057,-22,26,-15,-1,-15,-16,75,-8
1461662148695057,33,20,-7,-33,-35,-22,-52,25
1461662148696066,37,-8,2,1,-4,-35,-72,-3
1461662148696066,21,13,1,-44,-9,1,60,18
1461662148711059,-118,24,-8,27,5,26,15,-29
1461662148711059,16,21,-20,-80,-32,-18,-30,-16
1461662148717120,0,2,13,64,22,-16,-37,-15
1461662148717120,63,14,-13,-126,-51,22,6,1
1461662148732130,-26,13,-13,125,127,43,35,6
1461662148732130,50,16,64,72,29,-3,65,26
1461662148740088,-103,1,-29,-102,-43,18,2,-20
1461662148740088,-36,17,-52,84,-6,-31,-71,-25
1461662148755103,1,27,44,-90,-35,-19,-27,25
1461662148755103,9,19,-40,-66,-12,3,36,14
1461662148756096,15,1,-55,-18,16,45,22,-18
1461662148756096,-65,11,31,60,13,37,88,-7
1461662148771132,39,24,7,44,-7,-68,-116,1
1461662148771132,59,21,18,18,-8,-39,26,36
1461662148777134,-32,5,4,-24,-27,-6,-8,-27
1461662148777134,-3,13,-15,-37,7,9,-8,15
1461662148792143,-2,7,3,32,7,21,35,-8
1461662148792143,24,21,-3,-11,-16,3,16,9
1461662148800149,11,23,-7,-64,-28,-23,-20,1
1461662148800149,0,19,15,-118,-22,2,-20,-11
1461662148815191,-67,15,10,97,105,72,52,2
1461662148815191,-52,11,29,-65,-38,-18,-3,-27
1461662148823152,83,15,-8,54,45,13,7,26
1461662148823152,-15,23,-8,-13,-12,-9,27,0
1461662148830158,22,18,-31,-37,-46,-13,-51,-9
1461662148830158,-40,12,-40,-105,-52,-14,20,-14
1461662148837207,3,19,11,43,21,46,2,-16
1461662148837207,46,19,-2,6,3,-41,-42,7
1461662148852159,16,20,34,8,-19,-47,-6,43
1461662148852159,-64,16,-22,21,22,20,7,-3
1461662148860221,-9,-6,-4,7,-6,-17,10,-7
1461662148860221,-30,9,-1,22,3,15,50,7
1461662148875172,60,21,1,-19,-12,21,-49,-36
1461662148875172,-24,27,0,15,15,-14,-31,-3
1461662148876180,39,-1,-22,-88,-48,-26,-4,7
1461662148876180,-50,5,40,75,31,19,19,-4
1461662148890183,25,23,3,-21,-10,6,24,13
1461662148890183,18,24,15,18,36,31,22,4
1461662148897191,11,-5,-5,47,20,-9,-16,2
1461662148897191,-7,8,18,-8,-16,-16,-15,-3
1461662148912262,19,25,-31,-26,-14,0,17,9
1461662148912262,-21,22,-19,14,6,19,12,-12
1461662148920267,-7,0,-3,-35,-25,-9,0,11
1461662148920267,-12,15,-7,29,2,-33,-113,-11
1461662148935215,-58,23,-3,-3,-8,-24,15,-13
1461662148935215,39,18,1,-13,-16,-2,7,-1
1461662148943220,-55,1,-4,0,20,24,32,-4
1461662148943220,50,19,-2,-6,2,-20,-7,-2
1461662148950225,45,19,18,-8,-14,2,-5,21
1461662148950225,-66,20,-6,11,3,11,6,-6
1461662148957289,3,3,3,5,-17,15,15,-10
1461662148957289,3,16,-47,-120,-32,8,-8,-15
1461662148972242,-13,18,41,104,64,22,22,0
1461662148972242,21,23,6,-29,16,7,13,8
1461662148981262,33,4,-18,6,25,-4,-24,5
1461662148981262,-3,15,10,45,10,-5,7,-6
1461662148995285,20,19,25,0,-12,-5,3,3
1461662148995285,12,21,-7,12,-8,-1,5,2
1461662149003322,-18,6,-17,-8,-4,-19,-54,-13
1461662149003322,-80,16,-30,-48,-25,12,-6,-9
1461662149010332,34,20,-18,-35,-17,-17,39,22
1461662149010332,61,20,14,28,7,-10,-63,0
1461662149017303,-18,3,12,-27,-22,-4,0,-12
1461662149017303,-86,19,-12,8,13,-2,-19,-40
1461662149032292,-24,18,-1,3,3,-13,-56,-2
1461662149032292,39,19,-10,-57,-30,-3,18,8
1461662149040298,51,6,-31,-38,-13,-8,11,3
1461662149040298,13,18,57,109,64,32,51,27
1461662149055303,-25,17,-47,-86,-13,13,-14,-20
1461662149055303,-21,21,17,52,19,12,34,7
1461662149063310,25,8,-12,-17,-8,-2,-8,6
1461662149063310,18,17,38,57,23,9,10,7
1461662149078317,1,17,-55,-49,-22,-17,-3,-8
1461662149078317,1,21,-18,-11,-10,-8,-10,1
1461662149079318,-20,10,24,11,-1,-74,-21,-10
1461662149079318,-3,17,-12,-30,-16,41,-23,-5
1461662149092329,30,18,16,27,-1,13,42,4
1461662149092329,23,21,-1,-11,-5,23,20,14
1461662149100335,-45,10,23,47,23,17,11,6
1461662149100335,-55,18,-25,-35,-21,-56,-36,-24
1461662149115346,-3,17,9,1,-4,30,10,-21
1461662149115346,4,20,-4,8,8,-29,-23,1
1461662149123348,17,13,13,13,12,-10,24,21
1461662149123348,17,17,-7,-47,-33,-34,-20,-5
1461662149138393,-1,17,-2,-23,-1,12,7,4
1461662149138393,-4,18,28,63,20,-3,-7,3
1461662149139374,13,14,-4,26,10,12,0,4
1461662149139374,15,19,-22,-45,-15,10,19,4
1461662149152397,1,16,15,17,-2,1,-7,-7
1461662149152397,-36,20,-14,-16,5,-1,2,-10
1461662149160403,4,15,9,-1,0,-22,-22,-1
1461662149160403,-1,19,-5,19,5,-9,-2,4
1461662149175388,6,17,-10,-21,-18,78,30,-3
1461662149175388,-4,20,-5,-9,-6,-25,-2,-4
1461662149183409,15,15,8,9,4,60,17,1
1461662149183409,55,17,-1,-11,-6,-49,-13,17
1461662149198459,-42,17,6,20,8,8,18,6
1461662149198459,-39,20,-15,-15,-9,15,-33,-16
1461662149199444,-31,15,-3,1,1,-5,-2,-26
1461662149199444,41,12,14,-2,-4,-17,21,17
1461662149212470,6,15,-30,-57,-21,-44,-19,-2
1461662149212470,-28,15,44,82,35,30,21,0
1461662149221481,0,13,12,-57,-13,-20,-22,-2
1461662149221481,18,7,-6,40,24,25,13,2
1461662149235429,6,-128,-3,1,-1,-11,-6,3
1461662149235429,1,-128,-9,-19,-11,-7,-3,-4
1461662149243435,6,109,3,10,6,6,-2,-3
1461662149243435,-7,127,5,-11,-3,-12,1,-4
1461662149266449,1,11,9,23,7,-2,-6,-3
1461662149266449,10,-28,-16,-29,-13,-4,-18,-7
1461662149267450,-2,127,-7,13,6,19,7,-2
1461662149267450,9,127,-4,-13,-9,23,30,22
1461662149272454,19,-104,6,20,4,-16,-24,-5
1461662149272454,-2,-128,1,-14,-8,6,5,-4
1461662149280459,-49,-1,-10,-4,-7,-18,-7,-12
1461662149280459,-24,125,-3,-4,-2,-11,-10,-10
1461662149295527,22,103,5,11,-1,-24,-7,15
1461662149295527,14,77,0,-9,-1,12,10,0
1461662149310480,-1,114,2,2,1,4,-1,-6
1461662149310480,-6,54,2,-7,-11,-4,1,1
1461662149319486,7,-26,11,18,16,-2,3,9
1461662149319486,-8,-61,4,6,1,-1,-2,-3
1461662149320487,-2,6,-7,-6,-7,-9,-5,-1
1461662149320487,6,8,14,1,-5,-6,-2,3
1461662149332497,-5,-16,-14,-7,-3,-6,-1,3
1461662149332497,-8,-16,-16,2,0,-13,-6,-8
1461662149340501,9,11,2,-6,4,12,2,2
1461662149340501,-2,-4,-3,2,-1,9,4,2
1461662149354569,-8,-26,12,4,-1,-14,-4,-2
1461662149354569,3,-13,-4,-11,-2,11,11,4
1461662149363581,-9,-11,3,3,-3,-17,-9,-5
1461662149363581,3,-22,-10,-10,-7,-9,-9,-3
1461662149378528,-9,-10,-2,6,4,17,4,2
1461662149378528,0,-33,1,-3,1,8,3,-1
1461662149378528,5,-25,0,2,1,8,-2,-5
1461662149378528,-6,-12,-2,0,-3,-11,-6,-1
1461662149392628,-3,-28,0,3,-3,-13,-1,-2
1461662149392628,-8,-26,0,-10,-3,-1,0,-4
1461662149400692,4,2,2,3,1,6,2,-1
1461662149400692,-5,-7,0,6,2,-5,-1,-2
1461662149423652,3,-13,-6,-8,-8,-1,-2,0
1461662149423652,-5,-11,5,-5,2,3,1,-2
1461662149424653,-4,-8,-1,10,1,-4,-3,-4
1461662149424653,2,-7,-12,-13,-2,5,1,-1
1461662149437662,6,-1,18,12,3,-1,1,4
1461662149437662,0,-3,0,10,5,1,1,-1
1461662149438663,1,3,4,3,2,-1,-2,-1
1461662149438663,-3,-12,1,12,2,-1,-2,-1
1461662149452673,3,3,-7,-12,-5,-6,-4,1
1461662149452673,1,-5,-7,-12,-5,-5,-1,-1
1461662149460676,0,2,0,1,-2,6,1,-3
1461662149460676,-1,-4,-7,-6,-3,-4,-2,-1
1461662149474686,1,4,2,2,0,2,-3,0
1461662149474686,-6,-11,2,-1,0,-10,-2,-3
1461662149482691,-3,-10,-4,-3,-3,15,2,0
1461662149482691,1,-14,-3,-3,-3,-7,-3,0
1461662149497703,1,-7,-1,2,1,-3,1,1
1461662149497703,-2,-9,-2,-5,-3,10,3,-1
1461662149498702,-3,-5,-3,-1,0,2,-1,-4
1461662149498702,0,-1,-2,-2,-2,2,1,-1
1461662149512713,0,4,0,1,-1,-8,-1,0
1461662149512713,-2,-8,0,-1,-4,-6,-1,-1
1461662149520727,-1,7,-1,1,3,-4,-1,-1
1461662149520727,1,3,-2,-3,-2,0,-1,0
1461662149534729,-1,-1,2,-6,-8,-6,-4,0
1461662149534729,-1,5,-1,2,6,5,1,1
1461662149542836,1,6,6,20,8,0,0,2
1461662149542836,-2,4,2,4,6,3,2,0
1461662149557894,1,5,-2,-1,2,-1,1,0
1461662149557894,2,6,-3,-4,-3,2,0,0
1461662149558838,-3,0,-6,-13,-6,-7,-2,-3
1461662149558838,-4,0,-2,1,-1,-1,-1,-1
1461662149572844,-2,3,0,0,-2,0,-1,-1
1461662149572844,-6,-4,1,-2,-1,2,-2,-4
1461662149580863,-2,-3,-2,-3,-4,-4,-2,-4
1461662149580863,-1,-3,-3,-1,-2,0,-2,-2
1461662149603879,1,-2,-2,0,0,1,1,0
1461662149603879,-4,-11,-6,-1,-3,-2,-2,-1
1461662149604880,2,6,3,-1,-2,-1,0,-1
1461662149604880,-9,-13,-5,-7,-5,-3,0,0
1461662149617888,2,0,-1,3,0,3,-4,2
1461662149617888,2,3,0,1,0,1,1,0
1461662149618878,-1,1,-2,-2,-3,-4,-4,-4
1461662149618878,3,11,2,-2,-1,-1,0,0
1461662149632904,-1,-3,-2,2,-1,-4,-2,-2
1461662149632904,-4,0,-1,-2,-3,-2,-2,-1
1461662149640905,-2,-6,-4,-2,-1,-2,-3,-4
1461662149640905,2,2,2,-9,-5,-1,0,0
1461662149654924,-1,-2,-1,14,6,3,0,-2
1461662149654924,2,2,4,7,4,1,0,0
1461662149662976,-1,-4,-2,-6,-3,-2,-2,1
1461662149662976,0,0,2,6,3,0,-1,-1
1461662149677979,-1,-3,0,-3,-5,-1,2,0
1461662149677979,-2,-2,-2,-3,-4,-2,-2,-4
1461662149678924,-1,0,-5,-5,-2,-4,-1,-1
1461662149678924,0,-1,0,5,-2,-2,-2,0
1461662149691944,-3,-3,-2,-7,-3,-2,-1,0
1461662149691944,0,-2,-3,-3,0,-1,0,0
1461662149700995,-1,-7,-3,-2,-2,-1,-2,-4
1461662149700995,4,11,0,-3,-1,2,-2,2
1461662149714961,3,2,-4,0,0,-2,0,-1
1461662149714961,-4,0,0,0,-2,-2,-2,-2
1461662149722953,-3,-3,-4,-6,-5,-3,-4,-4
1461662149722953,-3,-3,1,6,2,2,0,0
1461662149738019,-1,-4,-4,-4,-2,0,-1,-1
1461662149738019,2,-1,-2,-8,-3,-1,-1,0
1461662149746034,-4,0,-1,-3,0,-3,-1,-2
1461662149746034,0,-3,5,22,10,4,0,-3
1461662149752030,-1,-2,1,-6,-3,-3,-3,0
1461662149752030,1,0,-2,-1,-2,0,1,2
1461662149761041,-3,-1,-4,-7,-4,-1,-3,-1
1461662149761041,0,-1,-1,-3,1,-1,-2,1
1461662149774987,0,2,2,3,0,0,0,0
1461662149774987,-3,-4,-1,0,-2,-1,-1,-3
1461662149783013,0,0,2,1,-2,-1,-1,0
1461662149783013,-1,-2,-9,-14,-6,-3,-2,0
1461662149798063,3,-1,0,2,0,0,-1,0
1461662149798063,4,2,-2,-5,-3,0,-4,0
1461662149799008,-6,0,3,2,2,-1,-1,-3
1461662149799008,-1,-4,-3,-3,-3,-1,-2,-1
1461662149821084,-2,0,-3,0,1,2,2,3
1461662149821084,0,-3,-1,0,0,0,-1,0
1461662149822025,-1,-1,-2,-7,-4,-2,-3,-2
1461662149822025,0,2,-2,-8,-5,-4,0,-2
1461662149835032,2,-1,1,5,3,0,-1,-2
1461662149835032,-5,-1,-5,-7,1,0,-1,0
1461662149843038,0,-2,6,10,1,1,0,-1
1461662149843038,-2,1,-2,-2,-1,-1,0,-2
1461662149857045,0,0,3,2,1,-1,-1,1
1461662149857045,-3,0,-2,-10,-3,-2,-1,-2
1461662149866052,-1,-2,-3,2,-1,-1,-2,-2
1461662149866052,-2,-4,1,-2,-4,-2,0,0
1461662149872057,1,0,0,-2,0,-3,-1,-1
1461662149872057,-1,-2,-1,3,1,0,0,1
1461662149881062,-3,-3,0,0,-1,-3,-2,-1
1461662149881062,0,-1,-4,-3,-1,-1,-1,0
1461662149895074,0,-1,-3,-3,-2,1,0,-1
1461662149895074,-5,-1,5,3,-1,-1,1,-3
1461662149903079,0,-1,-4,-6,-1,-1,-1,-1
1461662149903079,-3,1,-2,3,-1,-2,-1,0
1461662149917089,-5,-6,0,0,-1,0,-1,1
1461662149917089,-2,-4,-4,-1,-4,-1,-1,-2
1461662149925123,-1,-6,-3,-1,0,-1,-2,-1
1461662149925123,0,0,1,-2,0,0,0,-2
1461662149934130,1,3,3,-1,-2,-2,-2,-1
1461662149934130,0,0,-2,1,-1,-1,-1,0
1461662149941173,0,0,-10,-17,-7,-4,-4,0
1461662149941173,-2,-4,8,9,0,-1,-2,0
1461662149955190,-2,-4,-1,13,9,1,0,0
1461662149955190,1,-2,2,0,0,-2,-1,0
1461662149963217,-6,-4,-4,0,0,-1,-1,-3
1461662149963217,2,1,-7,-13,-5,-3,0,0
1461662149977213,-1,-2,-3,-9,-4,-1,0,1
1461662149977213,-1,0,2,3,-2,-1,-1,-2
1461662149985206,0,-1,0,0,-1,0,0,-1
1461662149985206,-1,2,-1,-4,-2,-1,-1,-2
1461662149992224,0,-5,-5,-6,-4,-3,-1,-3
1461662149992224,0,3,-1,2,2,0,-3,-2
1461662150000253,-4,0,6,13,2,1,-2,-1
1461662150000253,0,-4,-5,1,1,0,-1,1
1461662150015264,1,1,-1,-4,-3,-1,0,-1
1461662150015264,-2,-3,-3,-6,-3,-2,-1,-4
1461662150023246,0,-1,-3,-2,-1,0,-2,-3
1461662150023246,0,5,1,0,-2,-1,-1,-1
1461662150045261,1,-3,-2,-8,-2,-1,0,2
1461662150045261,-3,-1,4,14,5,1,-1,-3
1461662150053267,-2,1,-3,2,1,-2,0,-2
1461662150053267,-4,-4,3,11,3,1,-1,-3
1461662150061317,-5,0,-2,-4,-3,-3,0,-3
1461662150061317,-1,-2,-5,-7,-4,-2,-2,-2
1461662150062274,-1,-1,3,-14,-7,-4,-2,-1
1461662150062274,5,3,-1,14,10,3,1,2
1461662150075283,-2,1,8,15,3,0,0,-3
1461662150075283,-1,-1,-1,1,0,-1,-2,-2
1461662150083275,0,-4,-6,-2,-3,-1,-2,-1
1461662150083275,-3,-2,-4,-14,-6,-3,-1,1
1461662150097341,-1,-1,-2,-2,-3,-1,-1,-3
1461662150097341,0,0,-3,-2,1,0,0,-1
1461662150105293,-1,-2,0,0,-1,0,-2,-2
1461662150105293,-1,-2,-5,-14,-7,-3,-2,-3
1461662150120358,2,4,7,19,10,3,1,0
1461662150120358,-2,-3,-4,-5,-2,0,0,1
1461662150121300,-4,-3,-1,2,3,0,-3,-2
1461662150121300,1,0,0,0,-1,1,0,0
1461662150151334,-1,0,-6,-10,-4,-2,-2,0
1461662150151334,-2,-1,-2,-4,-3,-3,-1,-2
1461662150152334,-2,0,1,3,0,0,0,-2
1461662150152334,1,0,2,1,0,-2,-1,0
1461662150157383,-4,0,-4,-15,-8,-2,-1,0
1461662150157383,-7,-8,-6,-4,0,-1,-3,-3
1461662150165389,-1,-2,3,8,2,0,0,-1
1461662150165389,-3,-4,-5,-5,-3,-2,-2,-4
1461662150181344,3,0,-1,-1,-1,-2,0,-2
1461662150181344,1,0,-1,-4,-3,-1,-2,-1
1461662150182374,-2,0,-3,-3,-2,-2,-2,-1
1461662150182374,2,0,-3,-3,-3,0,-2,-1
1461662150195414,0,0,-1,-17,-13,-4,-2,-2
1461662150195414,3,3,2,25,18,7,3,2
1461662150203416,-5,-4,-4,2,0,-2,-1,-2
1461662150203416,-1,-4,1,5,3,-1,0,0
1461662150217426,-1,-2,-3,-3,0,0,-1,0
1461662150217426,-2,-2,-3,-10,-8,-4,-3,-3
1461662150225385,0,2,1,-2,-3,-2,-2,0
1461662150225385,1,0,-2,-1,0,1,0,1
1461662150240397,-4,-2,-2,3,1,-1,-2,-2
1461662150240397,-2,-2,0,-5,-4,-2,-1,-2
1461662150241397,-1,-2,-1,-3,0,0,0,-2
1461662150241397,0,-1,0,-1,-3,-1,-1,-1
1461662150255398,1,1,1,0,1,2,0,-1
1461662150255398,-1,-3,-2,0,-4,-2,-3,-2
1461662150263459,1,0,-2,3,1,0,-2,0
1461662150263459,-1,-2,0,-1,-1,-2,-1,-1
1461662150277590,0,-2,1,4,1,1,0,0
1461662150277590,0,2,0,-7,-3,-2,0,-1
1461662150293576,-3,-1,-1,-5,-3,-2,-1,-2
1461662150293576,1,1,3,-1,-1,-3,-1,0
1461662150300583,2,1,-8,-14,-5,2,0,-1
1461662150300583,-3,-5,-3,-10,-6,-2,-4,-4
1461662150301585,-2,-3,0,9,4,2,1,-1
1461662150301585,-1,-1,0,6,3,0,-1,1
1461662150314615,1,2,2,1,1,-3,0,-1
1461662150314615,-3,-1,-1,-7,-5,-3,-2,-2
1461662150323622,-1,0,-3,-5,-5,-3,-1,-3
1461662150323622,1,2,-5,-8,-4,-2,-2,-1
1461662150337621,-4,-5,-4,-2,-2,-1,0,-3
1461662150337621,-1,-1,3,11,3,0,0,0
1461662150345627,-2,-2,-1,-6,-4,-3,-3,-1
1461662150345627,2,-2,-3,0,-1,-1,1,-1
1461662150360638,0,-1,0,0,0,-2,-1,0
1461662150360638,-2,-1,-1,-3,-1,-1,0,-2
1461662150361619,-2,-3,-3,-3,-3,-2,-3,-1
1461662150361619,0,1,-2,-5,-3,1,-1,0
1461662150374640,2,-1,-2,3,1,-1,0,2
1461662150374640,-2,-1,-1,0,1,0,0,-1
1461662150382673,-2,-3,-3,-5,-2,-2,-3,-2
1461662150382673,0,1,0,0,-1,0,1,-1
1461662150406690,1,0,1,6,4,1,-1,0
1461662150406690,-1,0,0,0,0,0,0,-2
1461662150406690,-1,-4,-9,-14,-9,-4,-2,-4
1461662150406690,-3,-3,3,1,3,0,0,-1
1461662150420719,-2,0,5,3,0,1,-1,-1
1461662150420719,-2,-3,-3,-2,1,0,-2,-1
1461662150421662,-1,0,0,7,2,1,-2,-1
1461662150421662,-2,-1,-3,-1,-2,-1,0,-1
1461662150436673,-1,-1,0,-4,-2,-2,-1,-1
1461662150436673,-3,-2,-4,-10,-6,-3,-2,0
1461662150442688,-1,-1,4,13,2,-2,-2,-2
1461662150442688,0,1,2,2,2,0,-1,1
1461662150457729,2,2,-3,2,1,0,-1,1
1461662150457729,-3,-4,1,2,-3,-2,-1,-2
1461662150465763,1,0,-1,-6,-3,-1,0,1
1461662150465763,-1,-1,-1,1,-1,-2,-2,0
1461662150480728,-4,-4,-6,-8,-4,-2,-2,-3
1461662150480728,2,-1,-1,-6,-2,-1,-2,-2
1461662150481729,0,3,4,6,0,1,0,0
1461662150481729,0,-3,1,5,4,3,-1,-1
1461662150494738,0,0,-3,0,0,-1,0,0
1461662150494738,0,1,1,0,1,-2,1,0
1461662150502746,-1,0,-1,0,-1,-1,0,-1
1461662150502746,-1,-1,-4,-6,-3,-4,-3,-1
1461662150517791,0,0,2,4,2,0,0,0
1461662150517791,-4,-1,-2,-4,-3,-2,-2,-4
1461662150532743,-1,-3,0,0,1,1,0,-2
1461662150532743,1,1,0,-6,-3,0,0,1
1461662150540761,-2,-2,-3,8,4,1,-2,-1
1461662150540761,-2,1,2,-6,-3,-3,-3,-1
1461662150541763,-1,-1,1,8,2,-1,0,-1
1461662150541763,0,-1,-1,0,-2,-1,-1,-1
1461662150554772,2,-1,3,-3,-2,-2,-1,1
1461662150554772,-2,-2,-4,-4,-2,-1,-2,-3
1461662150562777,-3,-2,-10,-13,-4,-2,-3,-3
1461662150562777,-4,-2,2,9,4,0,-1,-3
1461662150577788,0,2,0,4,2,1,0,-1
1461662150577788,2,-1,0,3,-1,0,-1,0
1461662150585779,1,1,-3,-8,-3,-3,-1,-1
1461662150585779,-2,-1,-2,-2,-3,-2,-1,-1
1461662150600787,-3,-5,-1,-7,-6,-1,-1,-3
1461662150600787,-1,0,-1,3,2,0,-1,-2
1461662150601788,-2,-1,3,5,0,-1,-2,-3
1461662150601788,1,0,-4,-5,-1,0,1,-1
1461662150614797,-1,-2,2,2,0,-1,-1,0
1461662150614797,-1,1,-3,-1,-2,-2,-1,0
1461662150622817,0,-2,-6,-8,-4,-2,-2,-1
1461662150622817,-2,-3,-3,-5,-2,-3,0,-1
1461662150637829,-7,-4,-3,-7,-3,-3,-2,-3
1461662150637829,-2,-1,0,3,2,-1,0,0
1461662150645823,0,1,4,0,-1,-1,-1,-1
1461662150645823,0,0,-3,-2,-3,0,1,-1
1461662150661851,2,-1,-1,1,1,-1,1,1
1461662150661851,0,-1,1,-9,-4,-2,-1,-3
1461662150662831,-2,-2,-7,3,2,-1,-2,0
1461662150662831,0,-1,-4,-7,-4,0,-1,-1
1461662150683862,0,1,0,1,2,0,-1,-1
1461662150683862,-1,-2,0,3,0,1,-1,-2
1461662150684850,1,0,0,-6,-3,0,-2,-1
1461662150684850,0,1,3,6,1,-1,1,1
1461662150697875,-3,-2,-3,1,0,-1,-1,0
1461662150697875,-3,-3,-3,-2,-3,-1,0,-1
1461662150705864,-2,-1,1,-3,-2,-1,-1,-1
1461662150705864,1,-4,0,-4,-1,-2,-2,0
1461662150720932,1,3,7,10,2,0,0,1
1461662150720932,-2,-3,-7,0,0,-1,-1,-2
1461662150721888,-2,0,0,0,-2,0,0,-1
1461662150721888,1,0,-1,2,1,-1,-1,-1
1461662150734912,1,0,-2,-4,-2,-2,1,-1
1461662150734912,-2,1,0,-3,-3,0,-3,-1
1461662150742900,-4,-4,-8,-15,-5,-3,-3,-1
1461662150742900,0,0,11,21,8,3,1,-1
1461662150766933,-2,-2,-5,-5,-3,-1,-1,-1
1461662150766933,-3,-2,0,5,2,-1,-1,0
1461662150766933,0,-2,0,-5,-2,-3,-1,-1
1461662150766933,-1,-2,-3,-8,-3,-2,-2,1
1461662150780940,1,3,2,0,0,-1,-1,-1
1461662150780940,0,-3,-7,-7,-5,-3,-3,0
1461662150780940,-4,0,2,2,0,0,1,-1
1461662150780940,0,2,4,9,3,0,-1,-3
1461662150794928,-1,-2,0,3,-2,1,0,-1
1461662150794928,-1,-2,0,1,-1,-1,-1,-2
1461662150802956,0,1,3,7,2,0,2,0
1461662150802956,0,0,-4,-4,-3,-2,0,1
1461662150817958,1,-1,-7,-12,-6,-1,-1,0
1461662150817958,-4,-2,2,-3,-2,-2,-2,-3
1461662150825961,-2,-5,1,11,0,0,-1,-2
1461662150825961,0,0,-2,-3,1,1,1,1
1461662150839971,0,0,0,0,-1,-1,0,0
1461662150839971,-2,0,-4,-8,-2,-3,-1,-1
1461662150847989,-3,-3,-5,-3,-2,-2,-1,-1
1461662150847989,-1,-1,0,-6,-7,-4,-2,-3
1461662150854992,1,-2,-11,-10,2,-1,-1,0
1461662150854992,-2,-1,9,4,-2,0,0,0
1461662150863988,-2,-3,-2,5,0,-1,-1,-2
1461662150863988,2,-1,-2,-5,-2,1,-1,2
1461662150877984,-1,-2,2,6,0,-1,-1,-3
1461662150877984,-3,-2,-1,2,1,-1,-1,-2
1461662150885991,-2,-7,-4,-5,-3,0,-1,-2
1461662150885991,2,2,-4,-3,-2,-2,0,-1
1461662150900039,-2,-1,-3,-5,-5,-2,-1,-1
1461662150900039,-1,-3,-10,-14,-4,-1,0,-1
1461662150909006,2,3,15,20,-2,-2,-1,-1
1461662150909006,-2,-1,-2,8,8,1,-1,-1
1461662150915050,1,-1,-1,5,1,0,0,0
1461662150915050,-1,0,-1,1,-3,-1,-4,-3
1461662150924029,1,1,-5,-12,-2,-1,-1,-2
1461662150924029,0,0,-2,-10,-4,-2,-1,0
1461662150937084,1,3,6,12,2,1,0,-1
1461662150937084,-1,-2,-3,3,0,0,-1,-1
1461662150946033,-1,1,-6,-14,-5,-1,0,-1
1461662150946033,-5,-11,3,8,1,0,-2,-2
1461662150960101,-2,1,0,-5,1,-1,-2,-2
1461662150960101,0,-4,-1,3,-1,0,-1,-2
1461662150977062,3,3,-7,-11,-4,-1,-1,0
1461662150977062,3,4,3,1,-2,-3,1,0
1461662150978063,-2,-8,-1,-6,-4,-3,-3,0
1461662150978063,1,5,5,12,7,1,0,-1
1461662150984068,-4,-7,-8,-3,-2,-1,0,0
1461662150984068,-1,-3,-8,-11,-6,-1,-1,-1
1461662150997098,1,2,5,-1,1,1,-1,0
1461662150997098,-8,-7,-10,-6,-6,-3,-3,-3
1461662151006076,2,3,7,7,4,1,1,1
1461662151006076,1,-2,-3,-2,0,0,-1,0
1461662151020086,0,2,6,4,-3,-3,-1,-3
1461662151020086,0,0,-1,1,-1,-3,-1,-2
1461662151029091,-2,-2,-7,-9,-1,1,4,0
1461662151029091,-8,-4,4,10,-1,-1,-9,-2
1461662151044102,-1,-1,-6,-7,-1,-2,2,0
1461662151044102,4,0,-2,-7,-6,-4,5,-1
1461662151045102,-5,-4,-3,-4,-3,-2,-3,-3
1461662151045102,2,5,4,-1,2,5,8,2
1461662151057111,-3,-3,-9,-1,-2,-4,-18,-2
1461662151057111,0,0,4,1,-2,-10,-10,-3
1461662151066116,3,4,4,4,-1,0,14,2
1461662151066116,-2,1,-8,-17,-4,2,-3,-2
1461662151080126,1,-4,6,15,5,2,0,1
1461662151080126,0,3,0,2,3,1,-2,-2
1461662151089134,-3,3,1,3,2,-3,-12,-4
1461662151089134,-2,1,-9,-12,-4,1,10,0
1461662151104202,-2,9,8,8,1,4,9,3
1461662151104202,-6,-18,-18,-6,-3,-1,-6,0
1461662151105144,0,-6,0,-17,-6,-2,-7,-1
1461662151105144,-4,1,2,3,2,-2,-4,-6
1461662151117187,7,5,1,-5,-4,-3,-1,3
1461662151117187,-5,-4,3,12,1,-1,11,1
1461662151126190,0,-5,-1,9,3,5,15,1
1461662151126190,-14,-17,-9,-3,-4,-6,-26,-3
1461662151140199,1,-5,-8,-11,0,0,-2,-5
1461662151140199,2,9,7,-15,-8,0,8,2
1461662151149175,3,1,-12,9,0,-5,-7,0
1461662151149175,2,-4,5,2,-1,-6,-7,-4
1461662151164206,-3,2,0,1,-3,-4,-12,0
1461662151164206,2,3,-4,2,2,-1,-14,-4
1461662151165187,0,6,-4,-7,2,-1,-6,-5
1461662151165187,3,8,10,-14,-6,0,11,-2
1461662151178204,2,-4,-11,-21,-7,1,13,6
1461662151178204,1,-1,14,35,14,4,2,0
1461662151186201,-8,-3,-4,-6,0,-1,2,2
1461662151186201,-3,11,18,-6,-9,-8,0,-6
1461662151200251,5,-5,-11,17,11,11,22,3
1461662151200251,5,0,-6,-14,-4,3,-7,3
1461662151209232,-4,-23,-3,17,6,-2,-12,-7
1461662151209232,-4,-2,-10,-14,-6,-5,8,5
1461662151222229,-5,3,3,-17,-14,-10,-6,-1
1461662151222229,-4,9,-2,-5,-8,2,12,-1
1461662151231234,2,-15,-2,-7,0,-1,-43,-2
1461662151231234,10,-5,-3,-4,-9,-20,-4,-1
1461662151237239,10,26,3,-5,1,1,16,5
1461662151237239,-10,-13,-1,-6,0,17,36,-1
1461662151246250,-8,4,5,-9,-6,-3,-13,-3
1461662151246250,-4,-10,-7,-4,0,-5,0,-6
1461662151269303,7,-10,11,62,13,-4,-13,-8
1461662151269303,-6,22,-13,-41,-11,-17,-21,-4
1461662151270261,13,-3,16,-2,5,0,21,10
1461662151270261,-6,-23,-9,16,12,17,4,-1
1461662151282269,-19,-13,-35,-7,7,6,-1,-1
1461662151282269,-5,-8,-1,-63,-24,2,2,-8
1461662151291277,2,52,22,70,23,-2,-20,8
1461662151291277,-9,-17,-27,-28,-14,-16,1,0
1461662151297339,5,-25,14,-6,1,8,11,-6
1461662151297339,-5,-4,-16,2,-7,-17,-41,-7
1461662151306289,4,-13,-28,-53,-24,-17,-11,3
1461662151306289,-12,18,17,34,7,-3,41,9
1461662151320362,2,14,0,-28,-14,3,27,10
1461662151320362,6,11,2,5,1,24,6,-6
1461662151329312,-22,27,-22,-44,-17,-8,-25,-30
1461662151329312,15,27,11,9,4,-1,-22,4
1461662151342341,-5,3,-18,-4,-2,9,39,2
1461662151342341,1,-23,37,60,19,-15,-32,-3
1461662151351336,-9,-34,-17,-48,-27,-33,-15,-4
1461662151351336,19,2,-15,-13,-2,-1,-24,5
1461662151357338,-18,-23,-6,-13,18,12,29,4
1461662151357338,6,-26,5,-32,-3,19,69,15
1461662151366329,-1,21,31,31,19,29,-22,-15
1461662151366329,2,-49,-47,-37,-6,-21,-46,-11
1461662151380339,10,13,55,22,-17,-29,-19,4
1461662151380339,-28,-35,-25,36,21,7,-47,-15
1461662151389348,6,-53,-5,-37,-21,-14,-2,-3
1461662151389348,36,-13,22,27,1,14,37,27
1461662151403392,-18,-29,-7,-4,-1,-3,-18,-10
1461662151403392,9,61,12,-16,-14,1,60,9
1461662151411360,-2,3,-6,15,6,20,88,18
1461662151411360,-11,-36,0,-9,-3,-16,-113,-14
1461662151417405,23,-18,18,11,0,-28,-48,-4
1461662151417405,1,-57,-13,-23,0,-5,-4,-7
1461662151426373,-1,39,22,50,22,17,-4,-12
1461662151426373,-16,-98,-36,-36,-1,33,105,5
1461662151440403,-3,-110,-7,0,-14,1,-10,3
1461662151440403,-29,-2,-12,-37,-25,-58,-75,-17
1461662151449417,27,99,16,23,29,9,19,17
1461662151449417,0,127,10,-98,-38,5,14,-8
1461662151462406,10,127,25,56,37,24,-2,-9
1461662151462406,25,6,-29,61,34,41,78,22
1461662151478424,-22,45,22,-49,-27,10,1,3
1461662151478424,1,112,17,127,52,-3,-46,-9
1461662151479425,-11,84,-19,-78,-33,-42,-55,-20
1461662151479425,26,-64,1,9,-10,-10,-34,-20
1461662151486414,10,-42,9,9,16,43,101,30
1461662151486414,11,10,-22,-37,-20,-26,-45,11
1461662151500435,5,63,-10,-28,-23,-36,-5,22
1461662151500435,18,-53,10,0,6,5,-9,5
1461662151509436,-16,-44,-21,6,-4,13,18,-29
1461662151509436,1,51,13,-21,-9,8,-21,-12
1461662151522439,11,64,-24,-96,-33,-15,2,6
1461662151522439,-17,-49,28,100,43,21,35,11
1461662151531461,-18,-45,1,61,22,23,4,4
1461662151531461,1,74,13,-18,-7,-17,-6,-12
1461662151537509,32,99,5,81,29,6,16,21
1461662151537509,-30,-38,15,-128,-40,-12,-12,4
1461662151546457,-36,-42,-86,53,24,33,50,-21
1461662151546457,-29,62,2,24,19,32,7,-9
1461662151561501,2,67,9,82,27,-48,-68,9
1461662151561501,33,-9,11,-13,-13,-23,-43,8
1461662151569488,7,-35,8,-15,-1,-5,-50,-13
1461662151569488,-23,38,10,-27,-19,18,54,-25
1461662151582497,-22,59,-15,-13,3,9,-5,3
1461662151582497,-9,-3,6,39,9,-16,-9,4
1461662151591490,13,-16,15,-95,-26,1,76,20
1461662151591490,53,41,-12,64,23,15,-67,19
1461662151597493,-45,40,-11,-6,-20,-22,-45,-23
1461662151597493,-8,8,-4,-46,-8,-2,-2,-1
1461662151606499,3,-8,31,56,11,10,-43,-23
1461662151606499,-6,25,-27,4,19,-2,107,36
1461662151619508,-15,42,12,-64,-34,-13,-49,-15
1461662151619508,-11,1,37,9,-22,-12,-30,-13
1461662151628515,62,9,3,32,41,3,19,17
1461662151628515,-5,37,20,-9,-6,-20,-24,-17
1461662151642524,-4,32,-56,-44,11,46,125,13
1461662151642524,-38,4,1,-84,-54,6,-10,-22
1461662151651531,-27,3,-33,-50,-34,-9,-98,-5
1461662151651531,13,33,69,90,43,-51,-58,10
1461662151657610,1,25,-26,-56,-7,4,106,24
1461662151657610,18,-1,1,45,26,22,-29,-7
1461662151666590,15,20,2,-45,-39,-34,-49,-28
1461662151666590,-6,24,-28,-32,-4,11,23,11
1461662151679600,18,20,7,-1,-12,-8,1,-6
1461662151679600,-17,11,-13,30,29,50,90,15
1461662151688631,26,29,-8,-69,-24,-12,-65,-12
1461662151688631,-67,22,11,49,-4,-42,-16,-16
1461662151702665,-15,14,-20,-30,-7,-3,-49,-8
1461662151702665,-11,12,-35,-42,-32,5,68,11
1461662151711609,41,31,-52,88,92,23,2,12
1461662151711609,14,18,1,-21,1,17,-14,-15
1461662151717614,-7,16,-3,-50,-23,-6,-22,6
1461662151717614,54,10,-2,73,24,-10,-5,0
1461662151726619,0,28,17,-46,-23,3,81,20
1461662151726619,-41,23,-4,-119,-51,32,53,-17
1461662151739632,55,13,-12,127,63,43,7,29
1461662151739632,-84,11,-7,-23,-19,-55,-45,0
1461662151756641,-2,34,32,14,-10,-27,-63,-4
1461662151756641,65,22,22,-53,-13,2,8,0
1461662151762703,-18,12,8,7,-7,-62,-55,-16
1461662151762703,25,9,-14,34,25,-4,-9,5
1461662151771683,-13,37,16,16,4,12,21,7
1461662151771683,-29,20,-21,-55,-28,17,22,-15
1461662151777685,0,12,27,-48,16,56,29,4
1461662151777685,45,14,-29,-36,-10,-15,-17,2
1461662151793696,-43,29,36,88,67,6,18,-2
1461662151793696,9,19,14,-18,-15,14,6,-5
1461662151808692,-21,10,-28,46,-12,-3,0,-3
1461662151808692,13,14,31,81,52,11,-4,6
1461662151810694,5,28,-32,-128,-49,-15,-5,-8
1461662151810694,-18,18,-30,96,45,60,63,10
1461662151822688,32,4,34,-6,-21,-15,-77,-23
1461662151822688,-76,14,-36,-35,-22,-39,46,7
1461662151839701,2,27,1,-9,-24,48,-64,-15
1461662151839701,17,19,-14,-16,-43,-128,-88,27
1461662151840702,-28,5,3,-34,-16,4,30,-9
1461662151840702,30,14,-39,-50,-16,27,-7,-22
1461662151846718,16,31,30,52,20,43,78,17
1461662151846718,-84,19,12,-16,2,-4,-11,-21
1461662151859773,-14,-1,-11,29,-6,-15,-33,-9
1461662151859773,31,13,27,-38,4,6,-9,10
1461662151874755,-22,43,-41,-18,-12,-27,10,-8
1461662151874755,23,19,-20,70,41,35,11,4
1461662151882758,5,-7,26,85,53,11,9,5
1461662151882758,25,11,51,61,11,7,-2,3
1461662151891736,-37,30,-33,-73,-43,-24,13,-20
1461662151891736,45,19,48,9,-12,22,17,7
1461662151906767,-23,-11,-20,50,44,26,17,13
1461662151906767,-31,13,-2,-23,-12,22,-51,-24
1461662151907748,43,27,4,-37,-18,-44,66,34
1461662151907748,-24,18,-9,-6,-10,-21,-61,-17
1461662151919756,-37,-17,9,-39,-23,-35,-23,-20
1461662151919756,54,12,-10,-6,8,29,43,28
1461662151928761,-38,25,17,-2,-20,-50,-62,-23
1461662151928761,-3,16,-5,-26,-8,1,24,7
1461662151942811,8,-3,-26,-47,-23,37,42,7
1461662151942811,-25,12,33,37,17,-16,-13,-9
1461662151951818,26,27,-25,-33,18,17,-1,10
1461662151951818,-13,17,-23,89,31,19,16,-5
1461662151965827,18,-3,-10,-85,-19,-2,-12,-3
1461662151965827,-18,12,-2,-37,-18,-16,-15,-9
1461662151967789,0,26,5,49,0,-2,11,8
1461662151967789,48,16,26,-6,5,-6,-27,-3
1461662151979852,-8,3,0,-19,-14,21,6,-13
1461662151979852,-10,12,-34,-38,-10,13,33,-15
1461662151988859,7,19,-7,-4,-27,-63,-92,6
1461662151988859,-15,15,-17,-29,-4,-22,52,15
1461662152002893,-28,3,22,14,-7,-1,-32,-12
1461662152002893,40,15,-5,-23,-14,-15,7,9
1461662152011885,-34,26,13,17,24,51,-6,-33
1461662152011885,18,15,-10,-41,-25,-38,-18,4
1461662152033906,14,3,-7,-13,-25,-17,18,10
1461662152033906,-16,13,-14,-6,24,12,12,-1
1461662152035891,-12,26,31,43,34,11,4,-1
1461662152035891,-9,15,36,48,37,33,0,3
1461662152039910,16,3,-3,-4,4,6,20,5
1461662152039910,21,14,-44,-95,-50,-19,-31,2
1461662152048902,-14,23,42,93,37,4,12,1
1461662152048902,20,16,-16,-43,-7,7,-1,-3
1461662152062910,18,4,33,18,2,-38,-12,10
1461662152062910,-9,13,3,10,-4,-18,-15,-3
1461662152071945,4,24,-33,-41,-17,23,6,-6
1461662152071945,-11,15,1,11,4,27,33,12
1461662152101999,14,4,-13,-13,-8,-21,1,-6
1461662152101999,-24,14,5,18,7,50,-13,-8
1461662152103947,-5,14,-6,4,-8,-8,-21,-9
1461662152103947,15,14,-6,-6,-2,-10,7,9
1461662152104941,4,-1,1,2,4,5,34,16
1461662152104941,27,15,2,15,7,-28,0,4
1461662152116950,25,21,3,-22,-26,-27,-14,-13
1461662152116950,-44,14,-29,-54,-17,13,-12,-15
1461662152122954,-17,5,-9,35,26,13,6,-7
1461662152122954,-26,14,44,90,40,8,-2,-1
1461662152131966,-9,18,-23,-3,2,6,7,7
1461662152131966,32,14,-3,-10,-4,-15,-15,2
1461662152145984,-1,7,-26,-19,-13,-1,-3,-4
1461662152145984,-3,14,-6,-23,-12,5,-9,-7
1461662152147999,2,22,8,-1,-6,-16,-1,5
1461662152147999,13,15,1,2,-3,-1,24,2
1461662152160008,-9,4,9,0,-1,-3,-40,-6
1461662152160008,-27,14,-7,3,-4,2,22,2
1461662152168987,-18,14,-2,-16,-6,-12,3,-8
1461662152168987,-8,14,-2,3,-5,-19,-58,-10
1461662152182010,32,3,1,3,5,39,22,5
1461662152182010,56,14,2,4,0,31,28,6
1461662152191002,-47,27,-10,-31,-26,6,10,7
1461662152191002,-27,14,-17,-51,-16,-10,2,-7
1461662152206025,-10,6,48,73,37,-2,-1,-11
1461662152206025,-20,13,-20,-13,-7,-22,-21,-9
1461662152208013,26,17,8,-3,7,-4,11,0
1461662152208013,18,-128,13,29,21,11,0,3
1461662152220061,11,-112,0,-35,-11,-11,1,3
1461662152220061,-23,48,-8,3,0,-5,-3,-10
1461662152229056,4,-66,-6,-13,-15,-13,-9,3
1461662152229056,8,1,-11,9,-3,-1,0,1
1461662152243042,12,41,13,-7,1,20,5,-4
1461662152243042,9,127,-15,-7,2,-15,-9,0
1461662152251060,-9,124,4,0,-5,-2,-10,1
1461662152251060,-26,-73,-10,6,0,2,-9,1
1461662152266070,9,-1,1,4,-6,-14,-5,0
1461662152266070,-19,127,-1,-14,-4,33,16,3
1461662152272061,6,-12,1,7,3,-45,10,8
1461662152272061,12,-77,0,11,2,66,4,-5
1461662152280080,-20,-32,-13,-17,-13,-24,-20,-8
1461662152280080,-3,50,-4,-14,-12,-31,-25,-13
1461662152289071,9,-60,-9,-16,-2,0,11,3
1461662152289071,0,-112,9,27,10,-22,5,4
1461662152302118,-2,-36,-19,-20,2,11,8,-2
1461662152302118,-4,64,11,20,10,-5,-7,-2
1461662152312087,2,-35,1,23,7,-5,-3,7
1461662152312087,6,-26,-10,-17,-8,-9,2,1
1461662152326126,3,8,-4,-8,-7,6,2,-6
1461662152326126,-14,-106,2,1,-4,-19,-2,-2
1461662152332130,8,-66,-2,-16,-8,-9,-11,4
1461662152332130,0,98,-5,1,4,5,-3,1
1461662152340135,-4,127,6,8,4,29,12,-3
1461662152340135,-15,127,-8,-13,-9,-14,-12,-12
1461662152349115,10,107,8,9,0,8,7,14
1461662152349115,9,60,7,2,2,-6,11,7
1461662152362142,-6,18,-9,-2,3,13,0,-10
1461662152362142,-4,-65,-3,-4,-4,-4,-9,-5
1461662152371127,2,-43,-3,-1,-4,-11,-13,-1
1461662152371127,4,-42,9,7,4,2,15,8
1461662152385150,-9,-54,-3,-3,4,-1,-2,-6
1461662152385150,3,-47,2,1,-3,-2,-6,-4
1461662152394155,2,-47,1,-2,-5,0,0,6
1461662152394155,-4,-60,-5,2,1,-4,-3,-1
1461662152409213,-6,-77,7,-1,1,5,0,-7
1461662152409213,-3,-9,4,-4,-2,-4,-3,-3
1461662152410156,0,5,-5,2,-4,1,0,3
1461662152410156,13,15,5,-7,-5,-3,-1,2
1461662152422164,-8,-10,-23,-16,-2,-4,-2,-7
1461662152422164,-11,7,7,26,10,-5,-1,2
1461662152431171,-6,-7,-8,-6,0,4,-3,0
1461662152431171,3,13,12,8,5,1,3,0
1461662152445180,-2,12,7,-4,-6,0,1,-1
1461662152445180,11,-8,-21,-10,-3,15,9,4
1461662152454193,-11,-52,19,2,-3,-5,-6,-1
1461662152454193,2,-35,2,3,1,-11,-2,0
1461662152460215,-1,-24,8,-7,-4,-7,-1,-3
1461662152460215,-1,-30,6,-3,-1,10,2,-3
1461662152469214,7,-12,-24,1,-1,-7,-1,3
1461662152469214,-4,0,-5,-3,0,10,5,2
1461662152482224,-10,-2,-6,1,1,-8,-6,-4
1461662152482224,4,29,5,-3,-1,-5,-1,-2
1461662152491213,-4,18,2,6,-1,5,3,0
1461662152491213,-6,12,-4,-7,-6,-11,-6,-1
1461662152506223,-2,9,2,5,2,-6,0,-1
1461662152506223,-2,3,4,2,-2,-4,-6,-1
1461662152514231,-1,-3,-2,-7,-1,2,1,2
1461662152514231,0,8,-5,8,1,-4,-2,-2
1461662152520292,-1,-13,-2,7,2,12,3,-1
1461662152520292,-3,36,-1,-5,-2,-6,-6,-5
1461662152535303,6,-11,8,-3,-3,-15,-2,-2
1461662152535303,-14,-34,-12,-4,1,27,3,-4
1461662152542262,-3,-6,-31,-7,-2,-4,-3,-3
1461662152542262,1,-9,26,8,-2,-7,4,7
1461662152551257,3,1,-27,-6,-2,-5,-2,-2
1461662152551257,8,12,37,3,0,3,1,-2
1461662152566265,-1,-5,7,5,1,-11,0,-2
1461662152566265,-2,-14,1,-8,-4,11,-4,-1
1461662152568267,8,10,3,5,1,-3,2,7
1461662152568267,-3,-10,-11,2,-1,-9,-5,-3
1461662152580275,-7,3,3,-1,-1,-10,4,-3
1461662152580275,5,3,-8,-3,1,3,2,11
1461662152589307,-2,-1,0,3,1,12,0,-2
1461662152589307,1,1,-7,-8,-1,-1,-4,0
1461662152602292,3,5,9,6,-2,-4,-4,-4
1461662152602292,-4,-14,-17,-8,-6,-16,-6,-5
1461662152617302,-6,-1,-11,-10,-3,9,0,-2
1461662152617302,-5,10,-13,-3,1,-5,-2,-1
1461662152626308,3,14,1,4,3,-8,-2,0
1461662152626308,-1,7,-3,-2,1,16,1,-3
1461662152628310,-4,-20,20,1,-4,-3,-4,-2
1461662152628310,5,5,28,3,-3,0,2,2
1461662152640318,2,8,0,-6,-4,-7,-5,1
1461662152640318,-4,-7,-9,0,1,-4,-4,-7
1461662152649324,9,3,3,8,2,-3,16,10
1461662152649324,-5,-13,-7,-8,-4,0,-12,-9
1461662152662333,-1,4,9,0,1,5,-9,-6
1461662152662333,-2,-11,-16,-4,0,-2,-1,-4
1461662152671340,-2,-1,-11,-3,1,13,-2,-4
1461662152671340,5,9,-8,2,-4,-22,1,1
1461662152686352,0,-10,-6,-6,-2,16,2,0
1461662152686352,-1,6,44,0,-2,-17,-4,-5
1461662152688354,2,-5,-9,7,1,3,-2,-1
1461662152688354,4,10,5,4,3,1,7,11
1461662152700362,3,-2,9,1,0,1,-2,-1
1461662152700362,-5,-1,0,-1,-3,-12,-1,-1
1461662152724378,1,8,-4,-3,4,2,-2,-3
1461662152724378,5,8,16,4,4,5,0,-1
1461662152725379,-1,-1,0,-3,-1,0,-4,-4
1461662152725379,1,-14,-26,3,-1,-7,0,0
1461662152731384,1,5,7,-2,-4,-10,-1,-2
1461662152731384,-1,1,-9,-4,-2,-1,-3,-3
1461662152745410,1,10,3,0,2,22,13,-1
1461662152745410,-6,-1,9,-4,-4,-29,-17,-3
1461662152752409,-4,1,19,3,1,38,11,13
1461662152752409,1,-6,-27,-4,0,-7,3,-15
1461662152760416,-16,-27,-22,-4,-4,0,-12,-11
1461662152760416,6,12,-8,-3,-1,3,3,-1
1461662152769422,4,12,24,6,0,-7,-9,-3
1461662152769422,-3,-8,-40,-9,-5,-7,-5,2
1461662152782470,-4,7,23,0,-2,-5,5,-4
1461662152782470,1,-4,-15,3,2,4,-3,-2
1461662152791481,-5,-4,26,2,-1,-9,-4,-1
1461662152791481,5,15,25,4,3,6,5,7
1461662152805499,-5,-25,-77,-13,-3,-9,-5,-6
1461662152805499,-5,-20,5,-7,-7,3,-11,-2
1461662152812497,5,5,25,7,3,-2,10,-3
1461662152812497,2,11,-5,-2,0,6,10,4
1461662152819503,2,-1,-2,-3,-4,-7,2,10
1461662152819503,-4,-16,-2,-3,1,6,7,4
1461662152828517,5,24,9,-1,-4,-8,-4,-1
1461662152828517,-2,-18,-12,0,1,-1,-15,-8
1461662152842527,7,31,19,6,0,3,0,2
1461662152842527,-5,-21,-27,-6,-3,-6,-4,-2
1461662152851537,-1,-3,0,-2,0,7,3,-6
1461662152851537,-1,1,7,0,0,-14,-5,12
1461662152865680,-2,-2,11,1,-1,3,-32,-12
1461662152865680,5,15,11,0,3,11,36,4
1461662152872627,-4,-7,-37,-1,-2,-11,0,-1
1461662152872627,-11,-21,0,-7,-5,1,4,-6
1461662152888786,-2,-1,3,2,0,-5,-5,-1
1461662152888786,2,6,-2,2,-4,-3,-10,-1
1461662152890742,7,15,3,-1,2,0,-1,0
1461662152890742,-2,-15,-32,0,2,2,2,3
1461662152902796,-9,7,6,-5,-3,-7,3,-2
1461662152902796,-6,13,33,4,-2,0,-5,-3
1461662152911771,-11,-34,-34,-4,-1,0,0,1
1461662152911771,5,8,4,-2,-3,0,-4,-2
1461662152933786,2,-7,6,-3,-3,-3,-10,-1
1461662152933786,2,-1,-9,0,2,6,20,0
1461662152935786,4,17,4,1,-2,-4,-8,-3
1461662152935786,-8,-1,22,0,-2,-4,-12,-4
1461662152948787,1,-7,-2,3,-3,-13,-2,-2
1461662152948787,3,14,-1,-4,0,22,1,4
1461662152950788,0,-6,-1,-5,1,1,21,3
1461662152950788,-1,-2,-17,-1,-2,-1,2,-8
1461662152962800,2,4,17,0,-1,4,15,11
1461662152962800,0,-4,-26,-5,0,-3,-39,-13
1461662152987797,-4,-12,-6,-1,0,2,17,-1
1461662152987797,3,-14,4,2,-1,-1,-1,-1
1461662152988812,-3,23,-7,-10,-4,-6,11,-6
1461662152988812,-15,-22,25,-2,-1,-5,-16,-2
1461662152992840,-2,-2,-25,0,1,2,1,-1
1461662152992840,8,20,34,6,1,-4,1,0
1461662153016821,-18,-50,-26,-9,-4,-1,-1,-8
1461662153016821,3,1,-6,5,0,-2,-1,3
1461662153017827,-6,5,-5,-1,-3,-7,-14,-5
1461662153017827,3,20,14,-1,-1,3,2,4
1461662153031863,-3,-17,-4,4,2,4,0,-2
1461662153031863,4,17,21,0,-3,-10,8,-1
1461662153032832,-10,-34,-46,-3,-3,-15,-61,-5
1461662153032832,-1,-6,16,1,-1,-1,-3,-2
1461662153045840,0,3,-29,-1,2,25,47,8
1461662153045840,6,18,27,-2,-1,3,31,6
1461662153052872,-1,-6,-44,-16,-2,9,14,1
1461662153052872,-6,-4,-3,-2,-2,-13,-18,-3
1461662153068857,12,25,10,5,0,-11,-26,-4
1461662153068857,-11,-14,-4,0,1,16,-5,0
1461662153070874,9,23,42,6,1,-1,8,1
1461662153070874,-16,-39,-38,-13,-4,-4,-23,-9
1461662153090889,7,11,29,8,5,-4,1,7
1461662153090889,12,0,-36,7,2,-5,15,10
1461662153092872,-8,12,47,-5,-4,-1,-13,-7
1461662153092872,9,1,-30,-1,0,2,33,6
1461662153105882,-14,-13,50,9,1,-2,-34,-6
1461662153105882,1,8,-69,-18,-2,4,30,4
1461662153112945,5,7,24,9,1,-7,6,10
1461662153112945,1,9,-4,-6,-4,-5,-16,-4
1461662153128899,4,-7,1,7,1,-9,-25,0
1461662153128899,-7,-11,-7,-7,-7,-29,-11,-12
1461662153130901,4,-11,12,0,3,52,44,11
1461662153130901,4,17,14,-3,2,32,27,15
1461662153142910,4,13,8,1,-1,11,13,-1
1461662153142910,-16,-49,-61,-7,-5,-23,-55,-8
1461662153151930,1,-4,-27,-2,-2,-20,-16,-8
1461662153151930,9,18,14,9,5,6,18,8
1461662153165926,-12,-26,2,-2,-3,-1,35,5
1461662153165926,5,13,39,3,-1,-4,-25,-16
1461662153172931,-7,-8,-19,-12,-8,-10,-20,-4
1461662153172931,-6,-3,11,-2,1,5,-2,-5
1461662153188939,6,14,21,5,1,-8,-2,-3
1461662153188939,6,6,-22,-2,0,2,10,3
1461662153189953,1,-10,-31,-5,-1,-3,-13,0
1461662153189953,1,-1,7,-3,-5,-7,14,-5
1461662153202949,-3,-7,-28,-9,-5,-5,-10,-6
1461662153202949,-1,29,48,6,1,0,-5,5
1461662153211978,-2,-17,-35,-2,-5,-12,12,-5
1461662153211978,-6,-3,2,-3,0,-7,7,2
1461662153225965,3,-4,12,0,4,38,23,4
1461662153225965,8,19,29,9,2,-2,0,4
1461662153232971,-1,-7,-29,-8,-7,-23,-13,-3
1461662153232971,3,5,-8,0,-2,-6,3,-7
1461662153248982,-4,-5,-6,-6,-4,2,-12,-2
1461662153248982,5,3,10,2,1,3,11,8
1461662153251002,-10,-1,36,5,1,-3,-23,-12
1461662153251002,1,-3,-31,0,-3,-4,-2,1
1461662153263052,-6,-5,-13,-3,-1,-2,8,-1
1461662153263052,-3,17,39,-5,-3,-5,0,-8
1461662153272001,-4,-23,-63,-6,0,-4,-41,2
1461662153272001,-3,8,47,8,3,22,53,8
1461662153285017,-6,-18,-30,-10,-6,-10,-11,-8
1461662153285017,3,-9,-3,6,2,2,14,4
1461662153294022,11,35,49,9,4,-2,-2,1
1461662153294022,-4,-10,-10,1,-1,-8,-40,-9
1461662153309028,3,10,-10,-2,-4,-7,2,2
1461662153309028,3,-3,3,-5,-5,2,4,2
1461662153310028,5,7,25,8,7,6,11,-1
1461662153310028,-12,-4,-12,-4,-5,-10,-23,-8
1461662153323035,-7,-8,1,-5,-2,-6,-9,1
1461662153323035,-6,6,-1,3,2,3,-8,-2
1461662153338065,0,15,-10,-6,-6,13,39,-1
1461662153338065,-1,-11,26,6,3,2,-9,11
1461662153345049,-7,2,-19,-16,-6,-14,-20,-13
1461662153345049,5,-5,-9,-1,1,12,-14,8
1461662153354057,3,-13,7,7,5,6,66,8
1461662153354057,-1,20,23,1,-1,-1,-42,-3
1461662153369068,2,5,-9,-13,-6,1,46,3
1461662153369068,-3,-8,-7,11,7,-2,-20,-2
1461662153370068,-5,-22,4,4,2,-2,-5,-3
1461662153370068,2,-11,-28,-4,-3,-7,-3,-8
1461662153382078,1,-2,0,6,0,-4,-23,-2
1461662153382078,8,-6,-3,-6,-6,1,22,-3
1461662153391089,-20,10,18,-6,-4,-1,-16,-4
1461662153391089,3,2,-14,-7,-1,-3,-18,-4
1461662153405093,-3,3,11,1,-3,-4,-22,-1
1461662153405093,-1,-6,9,-8,-5,8,38,5
1461662153414100,0,-14,-10,5,4,3,13,4
1461662153414100,-1,-7,-16,-2,0,-3,6,-2
1461662153429122,-5,6,13,1,-1,-3,-10,-8
1461662153429122,3,6,12,1,-3,-8,-28,-4
1461662153431167,11,13,17,0,-2,0,-5,5
1461662153431167,-11,-5,-6,-7,-4,0,15,-5
1461662153442131,5,3,-6,2,4,-2,-3,-2
1461662153442131,-6,-9,-22,-7,-4,-3,-6,-3
1461662153459143,1,9,15,0,-3,-7,-19,-4
1461662153459143,-9,-23,-12,0,0,-2,2,-3
1461662153474143,5,4,-12,-2,-3,1,19,2
1461662153474143,-16,-24,-9,-4,-4,1,-4,0
1461662153475146,3,32,10,-6,-2,-4,-1,-1
1461662153475146,7,12,31,15,8,1,-10,-1
1461662153489155,-4,-19,-34,-1,-1,-3,-13,-3
1461662153489155,1,6,-6,3,0,-1,12,-3
1461662153490156,2,-7,12,-1,-3,-2,-14,2
1461662153490156,-1,-3,-5,-8,-8,-2,1,2
1461662153502164,-1,-2,11,-5,-4,-1,3,-2
1461662153502164,2,8,4,11,7,0,-5,0
1461662153511168,-7,-10,8,3,0,0,-5,1
1461662153511168,3,5,-1,-1,1,2,4,2
1461662153525196,2,10,2,0,-1,-2,7,1
1461662153525196,-2,-1,-10,-5,-6,-4,-20,-4
1461662153534187,2,-7,-8,-2,0,0,6,1
1461662153534187,-4,-5,-6,-1,1,1,19,-3
1461662153549195,3,10,8,2,1,0,2,0
1461662153549195,-3,-5,-6,-2,-3,-1,-7,-2
1461662153550195,-7,-13,-9,-1,-3,3,13,0
1461662153550195,4,-6,6,-3,-2,-1,-16,-2
1461662153562204,-5,2,-2,0,2,-2,-1,-5
1461662153562204,7,16,0,-1,0,-2,5,1
1461662153571210,-1,-23,-17,-10,-6,-2,-6,-3
1461662153571210,-8,15,2,12,0,0,2,-3
1461662153585232,-2,-14,-5,-2,-1,-1,-6,-3
1461662153585232,3,3,-5,-17,-6,-2,4,1
1461662153594238,0,-2,-2,0,-6,-4,-7,-1
1461662153594238,8,0,7,17,16,3,2,3
1461662153609236,4,7,3,11,1,-1,0,-1
1461662153609236,-6,-11,-8,-7,-1,-3,0,-4
1461662153610237,3,-6,-17,-7,-4,-1,1,-1
1461662153610237,-6,11,28,-13,-8,-2,-4,-2
1461662153622245,7,-5,4,2,2,3,-2,0
1461662153622245,-2,8,2,-2,-5,-4,-2,-2
1461662153631252,0,1,-7,1,2,-1,-1,-3
1461662153631252,-1,-14,-14,-6,-4,2,2,0
1461662153645262,-16,1,0,-1,-2,-1,-6,-3
1461662153645262,9,24,8,2,0,-1,0,0
1461662153654269,-1,-8,1,8,5,1,0,3
1461662153654269,1,-5,-9,-10,-5,0,-1,-2
1461662153668279,-4,-14,3,-6,-6,-3,-2,-2
1461662153668279,-19,-60,-17,1,-1,0,1,-5
1461662153675283,7,30,4,2,2,-1,-3,-1
1461662153675283,-4,-16,-7,-1,-3,-2,0,-3
1461662153682290,5,16,38,-1,2,-1,-1,1
1461662153682290,-24,-43,-44,-3,0,-1,0,-4
1461662153691295,7,13,9,-2,0,-2,-3,-1
1461662153691295,-2,8,-15,-3,-4,-3,-3,-1
1461662153707320,4,4,4,-1,-4,-3,-2,-1
1461662153707320,10,28,14,1,1,2,2,4
1461662153714313,-8,-18,9,1,0,0,0,1
1461662153714313,2,6,-9,-2,-4,-5,-3,-2
1461662153728333,2,0,-20,-2,-2,-1,0,-1
1461662153728333,-3,-7,13,-3,-2,0,1,1
1461662153735385,-3,5,-1,-4,-2,0,-2,-1
1461662153735385,7,15,9,-4,-2,-4,-3,1
1461662153742330,-3,-2,5,1,0,-1,-1,-2
1461662153742330,3,-1,-2,-1,-2,-5,-2,0
1461662153751360,8,17,3,2,1,4,2,1
1461662153751360,-8,-7,-6,-4,-2,-2,-1,-1
1461662153765405,0,-3,5,5,2,0,-1,1
1461662153765405,4,12,8,5,2,-1,1,1
1461662153774366,-1,7,10,-3,-4,-3,-2,-2
1461662153774366,-3,-5,-11,-6,-4,0,0,0
1461662153788434,-6,-8,-6,0,-6,-2,-3,-3
1461662153788434,4,13,4,13,13,4,3,3
1461662153795373,0,-10,7,8,3,1,-1,-1
1461662153795373,-12,-24,-10,1,-1,-2,-4,-3
1461662153802398,4,3,-2,-3,-2,-2,0,2
1461662153802398,-6,-4,2,-7,-5,0,-2,-4
1461662153811399,7,13,4,3,0,-1,0,2
1461662153811399,1,-6,2,-1,1,-1,0,-2
1461662153825406,-7,0,-6,-2,-3,-2,-4,-5
1461662153825406,4,7,-3,-2,-2,1,1,1
1461662153834412,0,1,-5,-5,-4,-1,0,1
1461662153834412,2,-2,10,-1,-3,-2,-3,-3
1461662153848494,-7,-12,-23,-2,-2,0,0,-4
1461662153848494,-2,-6,-1,-1,0,-1,-1,-4
1461662153855498,-3,-5,-8,-3,-1,-2,-2,-1
1461662153855498,-6,-8,-6,0,-1,2,-2,-3
1461662153871495,-3,-4,-4,-12,-1,0,-1,-3
1461662153871495,-1,-20,1,1,-4,2,0,-1
1461662153873491,-2,3,-1,18,10,0,1,1
1461662153873491,9,10,12,-5,-4,-4,-2,-1
1461662153885489,-14,-7,-22,6,9,1,-1,-3
1461662153885489,2,13,3,-2,0,-2,-2,-1
1461662153894499,-5,-11,-2,-14,-9,-5,-2,-2
1461662153894499,11,14,11,16,7,3,3,5
1461662153908546,-3,-14,-13,-4,-2,-2,-1,-2
1461662153908546,-5,1,7,-1,-2,-3,-2,-2
1461662153914550,-3,2,6,-5,-2,-2,-2,-1
1461662153914550,0,7,-4,-6,-4,-2,-1,-1
1461662153931537,1,-2,-1,-6,-7,-3,-3,-1
1461662153931537,-1,0,-8,2,0,-2,-1,0
1461662153932539,-2,2,0,-1,-1,-4,-2,-2
1461662153932539,-2,-14,-8,-5,-4,-1,0,2
1461662153945531,1,4,10,1,0,3,1,-3
1461662153945531,3,14,0,-2,-2,-1,-1,0
1461662153953538,-2,-20,-14,-1,1,0,-1,-1
1461662153953538,-1,-4,-5,-7,0,-1,-1,-1
1461662153968608,1,-3,2,5,3,0,1,1
1461662153968608,-3,15,10,-8,-7,-3,-1,-1
1461662153975553,-4,-24,-10,2,2,3,2,0
1461662153975553,-10,-2,2,8,0,0,-1,-4
1461662153991674,5,-4,-2,-4,-3,-1,-1,2
1461662153991674,6,7,4,-6,-3,-1,0,1
1461662153992673,0,10,-4,-7,-2,0,1,1
1461662153992673,-3,-13,-1,-5,-3,-2,0,-2
1461662154004728,2,0,2,1,0,-3,0,-1
1461662154004728,-1,-1,3,3,-2,-1,-1,-2
1461662154013703,8,11,1,1,-1,0,1,3
1461662154013703,-1,-5,-9,-3,-1,-1,-1,-1
1461662154028685,-2,11,5,-6,-3,-2,-1,0
1461662154028685,-1,-2,9,1,-1,-3,0,-1
1461662154034701,-1,-4,-15,3,0,-2,-3,-2
1461662154034701,-5,0,-3,0,0,0,-2,-2
1461662154051700,-5,-7,-8,-3,-4,-1,-4,-4
1461662154051700,-1,-9,-3,0,-3,0,-1,0
1461662154052705,3,9,14,7,2,-1,0,1
1461662154052705,-1,14,6,-2,-3,-2,-1,0
1461662154064768,-4,4,-15,-11,0,-3,-1,-4
1461662154064768,-2,-6,8,14,5,1,-1,1
1461662154073735,8,22,10,4,-3,-1,0,0
1461662154073735,-8,-8,-11,-15,-5,-2,-2,-4
1461662154087847,2,4,18,18,9,2,0,0
1461662154087847,2,2,-13,-5,0,0,1,-1
1461662154094804,-5,-7,3,-4,-1,0,1,-1
1461662154094804,5,3,-2,-8,-3,-3,0,-2
1461662154110805,-8,-4,5,-5,-6,-3,-4,-5
1461662154110805,0,-11,-16,-1,0,-2,-1,-2
1461662154118816,-3,-1,8,-7,-3,-1,-2,0
1461662154118816,1,-1,6,0,1,0,-1,0
1461662154124842,-1,-6,-5,-4,-3,-1,0,0
1461662154124842,-8,-7,0,0,3,1,1,1
1461662154133856,-3,1,-2,-4,-5,-3,-2,-2
1461662154133856,-5,-3,-1,2,1,0,-2,-2
1461662154147847,2,-8,-12,4,1,1,-1,-1
1461662154147847,-1,-4,3,-4,-5,-1,-1,-2
1461662154154853,1,8,-10,-3,2,0,0,1
1461662154154853,1,-2,-5,-7,-2,0,-5,-2
1461662154171864,6,10,-1,11,5,1,-1,0
1461662154171864,0,-24,2,17,4,2,1,0
1461662154172847,-8,-16,-3,-2,0,0,-1,-2
1461662154172847,-5,-4,3,7,-2,-3,2,-4
1461662154184887,-4,4,5,-9,-5,-4,-2,-4
1461662154184887,2,5,3,-7,-4,-3,-1,-1
1461662154193878,6,10,-7,-1,-3,-2,1,-1
1461662154193878,-6,-31,-2,2,1,1,-1,-2
1461662154207943,-4,-6,-8,-8,-5,-1,-2,-1
1461662154207943,-1,6,3,-1,1,0,0,-1
1461662154214947,-1,-2,3,-3,0,-2,0,-1
1461662154214947,1,6,-8,-2,-2,-1,1,-2
1461662154231903,-2,-4,2,1,-1,-2,0,1
1461662154231903,2,3,6,-2,-1,0,-1,-1
1461662154232915,0,3,1,1,-1,0,-2,-2
1461662154232915,1,-1,-5,0,2,1,0,-2
1461662154244922,-3,-5,0,-7,-5,-3,-2,-1
1461662154244922,-3,2,-13,-14,-6,-1,-2,-2
1461662154253929,1,9,10,7,4,1,0,2
1461662154253929,-1,-17,-9,-5,-1,-2,-2,-2
1461662154267928,2,11,5,10,0,-1,-1,0
1461662154267928,0,-4,-2,-16,-1,-1,0,1
1461662154274934,-6,-18,-16,1,-6,-1,0,-4
1461662154274934,-4,9,8,7,6,2,0,1
1461662154290930,-1,4,0,-8,-4,-3,-1,-3
1461662154290930,-2,-10,-2,6,0,0,-2,0
1461662154292934,7,13,5,-4,-2,-2,0,0
1461662154292934,-7,-9,-7,-1,-2,-3,0,-3
1461662154304980,1,-5,3,2,1,-1,-1,1
1461662154304980,8,18,-2,2,-2,-1,-1,1
1461662154313946,-6,-12,-7,-4,0,0,1,0
1461662154313946,2,11,6,0,-4,-1,-3,-1
1461662154327969,-1,-5,-5,-1,-2,-1,0,-4
1461662154327969,-5,-4,-5,1,0,0,0,-2
1461662154334974,-1,1,0,-2,-2,-2,-1,0
1461662154334974,6,15,10,1,-1,-2,-2,0
1461662154351002,-4,-11,-8,-5,-4,-1,-1,-1
1461662154351002,4,8,3,3,2,1,1,1
1461662154352980,-6,-9,-7,-15,-8,-2,-3,-4
1461662154352980,-7,-2,0,-1,0,-2,-2,-4
1461662154365089,1,0,-4,2,3,0,1,1
1461662154365089,-1,3,-2,-4,2,1,1,-1
1461662154374040,-3,-21,6,20,5,1,0,-1
1461662154374040,8,8,-3,-6,-4,-1,0,0
1461662154388107,-8,8,1,-7,-5,-3,-2,-4
1461662154388107,2,7,-2,1,2,0,-1,1
1461662154395053,6,6,-2,-7,-3,0,0,1
1461662154395053,-3,-13,-6,-1,-2,0,-2,-2
1461662154411123,2,-1,-3,-1,0,-1,-2,0
1461662154411123,-3,1,6,2,-1,-2,-2,-3
1461662154413067,-3,-6,-7,-1,1,1,0,0
1461662154413067,4,4,-6,1,0,-2,-1,-1
1461662154425086,0,0,1,-2,-1,-2,-2,-2
1461662154425086,-1,-6,-3,-1,-2,-1,0,-2
1461662154434081,0,4,3,-3,1,1,-1,-1
1461662154434081,-1,-1,-4,-7,-6,-2,-2,-4
1461662154449147,-2,-4,2,2,-1,0,0,0
1461662154449147,2,-1,1,2,1,0,-1,-1
1461662154455154,2,-2,-5,1,-1,-2,-1,0
1461662154455154,-6,-1,3,2,2,0,-1,-1
1461662154471170,2,-1,-7,-6,-1,0,-1,0
1461662154471170,-7,-15,3,-5,-2,-2,-1,-2
1461662154473139,3,10,11,12,3,0,-2,-2
1461662154473139,1,5,-8,-7,-4,0,-1,-1
1461662154485146,6,13,2,1,-2,-3,-2,2
1461662154485146,-4,-16,-8,-6,-2,-3,0,-5
1461662154494125,-3,0,-8,-7,-3,-1,-1,0
1461662154494125,-6,-4,-6,-3,-2,-2,-1,-3
1461662154508133,-6,-9,-3,2,-5,-2,-2,-4
1461662154508133,3,3,-6,-3,-2,-2,0,3
1461662154515154,1,7,12,9,6,1,0,1
1461662154515154,-2,-2,0,4,1,0,-2,-2
1461662154531163,2,-3,-3,-8,-4,-2,-2,-1
1461662154531163,-1,1,-6,-14,-10,-3,-1,0
1461662154533162,1,1,5,8,5,1,-2,-1
1461662154533162,-8,-9,-4,10,2,0,0,0
1461662154545218,2,3,9,-5,0,0,-1,1
1461662154545218,-3,-10,-7,5,-1,-1,0,-3
1461662154554166,-3,2,3,-1,-4,-2,-3,-3
1461662154554166,-6,-11,-6,-2,1,3,1,-2
1461662154568177,-6,-7,4,13,6,2,0,-4
1461662154568177,4,27,7,2,-2,-1,-1,0
1461662154575181,1,-21,-9,-12,-2,-2,1,0
1461662154575181,5,11,13,2,-2,-4,-3,-3
1461662154599214,-2,1,-10,-1,-1,0,-1,-1
1461662154599214,-6,-5,-4,1,-1,1,-2,-3
1461662154600198,-3,3,-4,-7,-3,-2,-3,-1
1461662154600198,-1,-16,-6,-6,-3,-1,1,-1
1461662154605213,-1,5,4,-6,-2,-3,-6,-1
1461662154605213,6,5,-6,-3,1,-1,-2,-1
1461662154614209,-2,2,10,16,1,2,2,-3
1461662154614209,-2,-2,0,-8,-7,-3,4,1
1461662154628231,-1,4,2,-5,2,3,1,2
1461662154628231,-1,1,2,9,5,0,1,-1
1461662154635236,-1,-15,-9,-11,-5,-5,-3,-1
1461662154635236,0,-1,6,2,0,-2,-2,-2
1461662154651250,2,-4,-18,-5,-2,-1,0,-2
1461662154651250,3,5,7,10,1,1,1,1
1461662154657270,-7,-15,-2,-10,-5,1,0,-2
1461662154657270,-3,8,7,-2,-3,-1,-2,-3
1461662154665302,-6,-23,-31,-13,-2,-1,-2,0
1461662154665302,0,0,5,-1,-3,-3,-1,2
1461662154674252,1,-5,-6,2,-4,-3,0,-2
1461662154674252,4,11,5,6,8,1,-2,2
1461662154687323,-6,-1,7,7,3,0,1,-5
1461662154687323,9,10,11,1,1,0,0,1
1461662154696285,-5,-11,-19,-10,-4,-1,4,0
1461662154696285,-1,-5,-9,-5,-2,0,3,2
1461662154711278,0,5,9,3,-4,-1,-15,-3
1461662154711278,-2,-4,-6,-3,-3,-6,0,0
1461662154725308,-2,2,7,-2,-7,-12,-15,-2
1461662154725308,-1,-4,-8,-1,0,-4,-4,-3
1461662154726289,-3,3,2,-2,0,3,7,-3
1461662154726289,-9,-16,3,0,-4,-1,-5,-2
1461662154734311,-2,-1,-5,-10,0,7,9,5
1461662154734311,4,-2,4,37,11,3,5,2
1461662154756310,-5,-16,14,0,-1,-1,1,-1
1461662154756310,-7,-4,-12,-10,-5,1,-3,-4
1461662154758311,9,14,-10,1,2,3,4,3
1461662154758311,-1,-6,-1,-9,-1,0,-4,0
1461662154770381,-1,-2,-13,-5,1,0,0,-1
1461662154770381,0,-8,6,-3,-2,-1,1,0
1461662154777341,0,16,4,-7,-1,1,1,-1
1461662154777341,-4,2,-3,0,-2,-2,-3,-6
1461662154794336,-7,-1,5,13,-1,-2,-1,-1
1461662154794336,1,1,4,-3,2,9,38,6
1461662154795337,4,8,3,-7,-2,-2,-33,-1
1461662154795337,-1,-1,3,-3,-7,-7,-6,-9
1461662154808408,0,-5,-13,-21,-4,-3,-8,2
1461662154808408,-3,8,-2,8,1,-5,2,2
