timestamp,emg1,emg2,emg3,emg4,emg5,emg6,emg7,emg8
1461661449030165,1,1,2,-3,-3,-1,0,0
1461661449030165,0,2,1,-4,-3,-1,1,0
1461661449037239,-1,-4,-1,-6,-4,-2,-2,1
1461661449037239,0,-1,1,9,1,-1,-1,0
1461661449053253,0,-4,-3,-2,1,0,0,1
1461661449053253,0,0,4,1,0,-1,-1,0
1461661449054273,0,0,-4,-4,-3,-1,-2,-1
1461661449054273,0,2,2,-2,-1,-1,-1,-1
1461661449085272,1,-2,-5,-1,-3,-2,-2,-1
1461661449085272,-3,-7,-6,-2,-3,-1,-1,-2
1461661449086260,-1,0,0,-2,2,1,0,-1
1461661449086260,-1,-3,-3,-1,0,-1,-2,-1
1461661449090319,-1,3,1,1,1,0,-1,-1
1461661449090319,1,1,2,-2,-1,-1,-2,1
1461661449097280,-4,-4,-5,-1,-2,-2,-2,-3
1461661449097280,-2,-2,-2,-6,-5,-1,-1,-1
1461661449113335,-3,-4,-3,-2,1,0,-1,0
1461661449113335,-1,-2,1,9,3,-1,0,-3
1461661449114288,-2,1,0,2,0,1,-1,0
1461661449114288,-3,-1,0,-3,-3,1,-2,0
1461661449129290,-1,0,-2,-2,-3,-1,-2,1
1461661449129290,-1,-1,-2,-4,0,1,0,0
1461661449135350,1,1,-1,1,-2,-1,1,-1
1461661449135350,-2,-4,-1,2,1,-3,-1,-2
1461661449150304,-1,-1,-1,-3,-3,-2,-1,0
1461661449150304,1,1,-2,-2,-1,0,-2,0
1461661449157308,-2,-4,-2,-3,-3,0,-1,-1
1461661449157308,0,-2,-2,-6,-2,-1,-1,-2
1461661449172377,-2,-1,3,7,4,2,-1,-2
1461661449172377,-1,-2,-3,0,-1,-1,0,-2
1461661449180338,-2,1,0,-3,-2,-1,-2,-1
1461661449180338,-1,1,-4,2,0,-1,-1,-1
1461661449189336,-1,-1,-2,-5,-3,-2,0,1
1461661449189336,-3,-1,2,-1,0,0,-1,-2
1461661449195336,0,1,0,1,0,-1,0,-1
1461661449195336,-1,1,3,1,1,-2,-1,0
1461661449210376,0,0,-3,0,0,-2,-2,0
1461661449210376,1,-1,-2,-6,-4,-2,0,0
1461661449225356,-2,-6,-3,-1,-4,-3,-1,-2
1461661449225356,-1,0,0,0,-2,-1,0,-1
1461661449232372,-1,-3,0,-2,0,0,1,-1
1461661449232372,0,-1,0,3,1,-1,-1,1
1461661449240425,-3,1,0,-2,-1,-2,-2,-2
1461661449240425,0,-1,1,-1,-1,0,-1,0
1461661449255435,1,-1,-2,-6,-3,-1,0,0
1461661449255435,-2,0,-1,0,0,-1,-1,-1
1461661449256390,-1,1,-2,3,1,0,-2,-2
1461661449256390,-2,-2,-1,-4,-1,-2,-1,-1
1461661449270447,-3,-2,0,0,-2,1,0,-1
1461661449270447,0,-1,-2,1,2,-1,-1,-2
1461661449277405,-1,-3,-8,-4,-1,-1,0,0
1461661449277405,-2,-1,1,-6,-3,-3,-1,-2
1461661449292404,1,0,0,-1,-1,-2,-1,-3
1461661449292404,-2,-1,1,5,3,-2,0,-1
1461661449300421,0,-3,-3,-4,-1,-1,0,0
1461661449300421,-1,-4,-5,0,-1,0,-1,-2
1461661449309420,0,0,1,-3,-3,0,1,1
1461661449309420,-1,-1,-1,-1,-1,0,-1,-1
1461661449315420,0,0,-1,1,-2,-2,-1,-1
1461661449315420,-1,5,1,-1,0,-2,0,1
1461661449330430,-2,-9,-6,0,0,0,-2,-2
1461661449330430,0,1,0,-5,-3,-1,0,0
1461661449337518,0,-4,-1,-1,-1,-2,-3,-1
1461661449337518,0,0,0,5,2,0,-1,0
1461661449352518,-2,-2,0,1,-1,-1,-1,-1
1461661449352518,0,-2,-3,-2,-2,0,-1,0
1461661449360539,1,-1,1,-2,-2,-1,-1,-1
1461661449360539,0,-1,-1,0,-2,0,-3,-2
1461661449375517,-3,1,-1,0,-1,-1,-1,0
1461661449375517,-2,-1,-2,-4,-2,-1,-2,-1
1461661449376516,-3,-1,1,-5,-2,-3,-2,-2
1461661449376516,0,0,-2,6,0,-1,-2,-1
1461661449390550,0,-2,6,5,3,1,-1,-1
1461661449390550,1,0,-3,-4,-3,0,0,-1
1461661449397550,-1,-3,-1,-2,-1,-1,-1,-1
1461661449397550,1,-6,-6,-1,-1,-2,0,0
1461661449412553,0,3,-4,-5,-3,-2,-1,-1
1461661449412553,0,-3,2,2,-1,0,-1,1
1461661449420558,0,-1,-1,-2,1,0,-1,-2
1461661449420558,-3,1,0,-4,-2,-2,0,-1
1461661449436598,-1,-4,-3,2,0,-2,0,-1
1461661449436598,0,-2,-1,1,1,0,1,-1
1461661449443603,-1,1,-2,-2,-1,-2,-1,0
1461661449443603,-2,-5,-1,-5,-2,-1,-3,-1
1461661449450567,2,4,1,-1,0,0,-2,2
1461661449450567,0,0,0,-2,0,-2,0,-3
1461661449457612,-3,-8,-4,-2,-2,-2,-2,-2
1461661449457612,-1,-2,2,-1,-1,-1,0,-3
1461661449472622,0,2,1,-1,-2,-2,-1,-2
1461661449472622,-2,1,0,-1,-2,1,-1,-1
1461661449480602,-2,0,1,2,-1,0,0,-2
1461661449480602,-3,-5,-2,0,-1,-1,-1,-1
1461661449503668,-1,-3,-4,-2,-1,-2,-1,0
1461661449503668,1,4,2,-2,-2,-3,-1,-1
1461661449504636,-1,0,-1,-2,0,0,-1,-2
1461661449504636,-2,1,-3,-2,-1,-1,0,-2
1461661449510615,-2,-3,-1,-1,-1,-1,0,-1
1461661449510615,-1,-2,-2,0,-2,-2,-1,1
1461661449517678,-2,-4,-1,-1,0,-2,-2,-1
1461661449517678,0,0,0,1,-1,-1,-1,0
1461661449532678,0,-1,-3,-2,-2,-1,0,-1
1461661449532678,-2,-3,0,-5,-2,-2,-2,-1
1461661449539683,-2,-1,-2,-2,-1,-2,-2,-1
1461661449539683,0,0,-2,0,1,1,-1,0
1461661449555693,1,1,2,6,3,0,0,0
1461661449555693,-1,0,-2,-1,-3,0,-1,1
1461661449556694,0,0,1,-6,-5,-1,-1,0
1461661449556694,0,1,-2,-6,-3,-1,-1,-1
1461661449569718,0,1,-1,0,-1,2,-1,0
1461661449569718,-2,-5,-4,-2,0,0,0,0
1461661449577725,-1,-2,-6,2,1,0,-1,0
1461661449577725,-2,-2,3,-1,-3,-2,0,-3
1461661449592718,-1,1,2,-1,1,0,0,0
1461661449592718,0,2,3,1,1,1,-1,-1
1461661449599781,-4,-4,-7,-3,-3,-2,-1,-2
1461661449599781,-1,-3,-3,1,0,-2,0,-2
1461661449615791,1,0,0,-3,-3,-2,-2,0
1461661449615791,-1,1,0,0,-2,-1,-1,-1
1461661449616737,-1,-1,2,5,2,0,-1,-1
1461661449616737,-1,-2,-2,-1,-1,-1,-3,-2
1461661449638752,-2,1,-3,-4,-3,-1,1,0
1461661449638752,-1,-2,-1,-1,1,0,0,-1
1461661449638752,1,1,1,-1,-3,-2,-2,-1
1461661449638752,-2,-3,-3,-1,-2,-2,-2,-1
1461661449652777,0,-4,2,1,1,-1,0,-1
1461661449652777,-1,0,-3,-4,-2,-3,-1,0
1461661449659765,-3,-2,1,-6,-3,-1,-1,-2
1461661449659765,-2,1,-1,-5,-3,0,-3,-1
1461661449675790,-2,0,-2,-5,-2,-2,0,0
1461661449675790,-2,1,0,9,3,0,0,0
1461661449676795,0,-1,-6,1,-3,-1,-1,-2
1461661449676795,-1,-1,1,-3,-3,-2,-2,-1
1461661449689786,-1,-1,0,-4,-1,0,-1,-1
1461661449689786,-1,-5,-3,-1,-1,-3,-2,-2
1461661449697791,-2,-1,2,-2,0,-1,0,-2
1461661449697791,1,2,0,0,-2,-1,0,0
1461661449712802,-1,0,-2,4,2,-2,-2,-1
1461661449712802,-3,-8,-2,-4,0,-2,-1,-4
1461661449719807,-1,-1,1,-1,-2,-1,-1,0
1461661449719807,-1,0,-1,3,0,0,1,-1
1461661449735819,0,0,1,1,-1,0,-1,-2
1461661449735819,1,-3,-3,-2,-2,0,-1,-1
1461661449736820,0,-1,-1,-3,-2,-1,-3,-2
1461661449736820,0,-2,-1,5,3,0,-1,0
1461661449749829,0,1,0,-3,-2,-2,1,-1
1461661449749829,-1,-2,-2,-5,-3,0,0,1
1461661449757834,-4,-3,-2,-1,0,0,-1,-2
1461661449757834,-2,-2,-3,-3,-2,-1,-2,-1
1461661449772846,-1,-3,-4,1,-1,-2,-1,-1
1461661449772846,0,1,3,-2,-3,-1,0,0
1461661449779850,0,-2,-6,1,-1,-1,-2,-3
1461661449779850,-3,-3,3,1,0,-2,0,-3
1461661449803907,-1,0,1,-2,-1,1,0,-1
1461661449803907,1,3,3,3,-1,-1,-1,-1
1461661449804869,-3,-1,-1,-2,-2,-1,-1,-2
1461661449804869,0,1,-5,-9,-3,-2,-2,-1
1461661449809910,0,-1,-1,3,0,-1,-1,-1
1461661449809910,0,-2,-1,5,3,1,0,0
1461661449817935,-1,0,5,4,-1,-2,-3,0
1461661449817935,-2,-4,-3,0,-2,-1,-2,1
1461661449832917,1,1,0,-6,-2,0,-1,1
1461661449832917,-2,1,-4,-1,1,1,0,1
1461661449839954,-1,-1,-2,-3,0,-1,-3,-1
1461661449839954,0,0,0,-3,-2,-2,-1,0
1461661449863939,-2,-2,-3,-5,-3,-1,-1,1
1461661449863939,-2,-8,-4,0,-1,-1,-2,-3
1461661449864911,-2,-3,-2,-3,-1,-1,-2,0
1461661449864911,-1,-1,1,2,2,0,0,-1
1461661449869943,0,1,-2,-1,-3,0,0,0
1461661449869943,-2,0,2,1,-1,0,0,-2
1461661449877948,0,-3,-1,-4,-3,-2,0,-1
1461661449877948,-1,-1,-5,0,0,-2,-1,-2
1461661449892933,0,-1,3,1,1,0,-1,0
1461661449892933,0,1,0,-6,-3,-1,0,1
1461661449899953,-2,-1,1,-2,-2,-2,-2,-3
1461661449899953,-1,-2,-2,1,-1,-1,-1,-1
1461661449916009,-2,-3,-4,1,-1,0,-1,0
1461661449916009,0,1,-2,-2,-1,-2,0,-2
1461661449916949,0,2,3,1,-1,-1,0,-1
1461661449916949,0,0,-2,-2,0,-1,0,-1
1461661449929961,-1,-4,-4,1,-1,-1,-1,0
1461661449929961,-1,2,-3,-7,-2,-1,0,0
1461661449937991,0,-3,-3,0,-2,-1,-2,-2
1461661449937991,0,-1,1,-2,-1,-1,-1,-1
1461661449952973,1,3,2,7,1,1,1,-1
1461661449952973,-2,-1,-1,1,0,-2,-1,1
1461661449959994,-1,-1,1,-1,-2,-2,0,-2
1461661449959994,-3,-8,-4,-2,-2,0,-1,-2
1461661449976992,-2,1,0,-1,0,-1,0,0
1461661449976992,-1,-1,-6,-1,-2,0,-1,-2
1461661449977992,0,3,6,3,1,-2,-1,-2
1461661449977992,1,2,1,-2,-2,-2,-2,0
1461661449990019,-1,-7,-4,-3,0,0,-1,1
1461661449990019,0,-2,-2,2,-1,0,-2,-1
1461661449998025,-1,-2,-5,0,-1,-1,-4,-1
1461661449998025,-2,0,-1,-4,-4,-1,0,-1
1461661450013026,-1,2,2,6,4,0,0,-2
1461661450013026,0,-1,1,0,-1,-2,-1,0
1461661450020021,-5,-3,-4,-1,-1,0,0,-1
1461661450020021,-1,-1,2,-1,-1,0,0,1
1461661450036031,-1,-2,-1,-2,-2,-1,-1,-2
1461661450036031,1,0,1,0,-1,-1,-1,-2
1461661450037031,0,-2,-2,-2,-2,-2,-2,-2
1461661450037031,-3,-3,-5,0,-2,-3,-1,-1
1461661450058049,-1,-1,-2,-1,-1,1,-1,0
1461661450058049,-1,1,1,3,2,1,1,1
1461661450059047,-2,-1,-2,-4,-4,-1,-1,1
1461661450059047,-1,0,1,2,3,0,-1,-1
1461661450073057,-1,-1,0,1,-1,-2,-1,-2
1461661450073057,-2,-2,0,-4,-2,-1,-1,-1
1461661450080074,0,-5,-5,-3,-2,-1,0,-1
1461661450080074,2,3,2,3,0,0,0,0
1461661450096086,0,-1,-3,-9,-4,-1,0,-1
1461661450096086,-1,-1,3,3,-1,-2,-1,-1
1461661450096086,-2,1,3,-2,-2,-1,-1,-2
1461661450096086,-1,2,0,-5,-2,-1,-2,0
1461661450110104,1,3,3,2,1,-1,-1,0
1461661450110104,-1,-3,-3,-2,1,0,-1,0
1461661450118089,-2,-4,-6,-3,-2,-2,0,-2
1461661450118089,0,-1,1,3,-1,1,1,-1
1461661450133099,-2,-1,-2,-3,-3,-1,0,-1
1461661450133099,-2,0,-1,0,-3,-1,-1,-2
1461661450140164,-2,-2,-1,0,0,-1,0,0
1461661450140164,0,3,2,1,0,-1,-2,-2
1461661450155136,0,-6,-4,-2,-2,-1,-2,0
1461661450155136,-2,-2,-3,0,-2,-2,-1,-1
1461661450163121,-1,0,-1,-5,-2,0,-1,-2
1461661450163121,-1,1,0,1,0,-2,0,-1
1461661450170157,0,1,1,2,-1,-1,0,0
1461661450170157,0,-2,-2,-6,-1,-1,-1,-1
1461661450177160,-4,-5,-5,-4,-4,-3,-3,-3
1461661450177160,-1,0,0,3,2,-2,-1,0
1461661450192143,1,2,0,0,-2,-1,-1,1
1461661450192143,-2,-2,-1,-3,-1,-2,-1,-1
1461661450200160,-2,-2,-4,-6,-4,-2,0,-1
1461661450200160,-2,-3,-4,-6,-3,0,-1,-2
1461661450224165,-1,-2,0,0,1,0,1,0
1461661450224165,2,2,1,2,1,0,-1,-1
1461661450231182,1,-1,0,2,-1,1,-2,-1
1461661450231182,-2,-7,-6,-6,-3,0,-1,-1
1461661450234173,0,0,1,-3,-1,-2,-1,-2
1461661450234173,-2,0,3,1,-2,-2,0,-1
1461661450238176,-1,1,1,1,0,0,-2,-1
1461661450238176,-2,-2,0,-1,0,-3,0,-1
1461661450252199,-1,-3,-3,-1,0,-2,-1,0
1461661450252199,-1,-2,-1,-3,0,-1,0,-1
1461661450260249,-1,0,2,3,1,0,-2,-2
1461661450260249,0,0,-2,-3,-1,0,-2,1
1461661450276215,-1,1,-1,1,0,0,-2,-1
1461661450276215,-1,3,2,1,-3,-2,-1,1
1461661450283210,-3,-4,-4,-7,-4,-3,-1,-2
1461661450283210,0,1,1,8,4,1,0,0
1461661450290231,0,1,0,-2,0,-1,-1,-1
1461661450290231,-1,-2,-2,-1,-2,1,-1,-1
1461661450297228,1,2,-1,2,1,-1,0,-2
1461661450297228,-3,-7,-6,-5,-3,-2,-2,-3
1461661450312285,-1,-1,-2,0,-2,-2,-2,0
1461661450312285,0,1,-3,-2,-1,-1,0,0
1461661450320291,-2,0,-2,-2,-4,-1,-1,-2
1461661450320291,-1,-2,1,2,0,-2,0,-2
1461661450335301,1,-1,2,2,1,1,0,-1
1461661450335301,0,-3,-1,-6,-1,-2,1,-2
1461661450343248,-1,0,-2,-3,-2,-1,-2,-1
1461661450343248,-1,2,0,-1,-2,1,1,0
1461661450358260,-1,-3,0,5,1,0,1,-1
1461661450358260,-2,0,0,0,-1,0,-1,-2
1461661450359261,-1,-2,-5,3,2,0,0,-2
1461661450359261,1,2,3,-3,-3,-1,-1,-1
1461661450372269,-1,1,2,-4,1,0,0,1
1461661450372269,-1,-4,-2,1,-1,-1,0,-1
1461661450380289,-2,-1,-1,-2,-1,-2,-1,-2
1461661450380289,0,0,-3,3,1,0,-1,0
1461661450395299,-2,0,-1,-5,-4,-1,0,-1
1461661450395299,-2,-5,-1,5,3,1,-2,0
1461661450403292,-2,-3,-1,-3,-1,-1,0,0
1461661450403292,0,-3,-1,-4,-1,-1,0,-1
1461661450426323,3,6,3,4,0,-1,-1,-1
1461661450426323,-2,-3,-5,-5,-2,0,-1,-1
1461661450427311,-2,-3,-1,2,0,1,-1,-1
1461661450427311,0,0,0,-2,-2,-1,-1,-1
1461661450432323,-1,-1,-2,-2,-1,-3,0,-2
1461661450432323,-1,-4,-4,-4,-3,-1,-2,-2
1461661450440376,-1,-3,1,4,1,-2,-2,-2
1461661450440376,1,0,1,0,-1,-1,0,-1
1461661450455386,-4,-6,-3,-4,-1,0,0,1
1461661450455386,-1,1,-4,3,-1,0,-1,-2
1461661450463391,-1,-2,4,-4,-3,-2,-1,-2
1461661450463391,-1,1,-1,-3,-1,0,-1,-1
1461661450478356,1,1,2,2,1,-1,-1,-1
1461661450478356,-3,-1,2,-3,-1,-1,-1,1
1461661450479356,-2,-3,-2,3,-2,-2,-1,0
1461661450479356,0,2,-2,-4,-1,-1,1,-1
1461661450492354,-1,0,-3,-2,-1,0,0,0
1461661450492354,2,1,4,3,2,-2,0,-1
1461661450500372,0,-2,-4,-3,-3,0,-2,-2
1461661450500372,-1,-1,0,-4,-4,-2,-1,-1
1461661450515391,-1,-4,-3,-1,-1,1,-2,-1
1461661450515391,1,1,2,1,0,-2,0,0
1461661450523388,-1,4,-1,-3,0,0,-1,1
1461661450523388,-2,-1,1,-1,0,-1,-1,0
1461661450538445,0,-3,-5,-6,-2,0,-2,-2
1461661450538445,-2,-5,-2,1,-1,-1,-1,-1
1461661450539397,0,3,-1,-1,-1,-1,-1,-1
1461661450539397,-2,-1,0,-1,-1,-2,-1,-1
1461661450554429,-1,-3,-3,-4,-1,-2,0,-2
1461661450554429,-2,-1,0,-7,-1,-1,1,0
1461661450560460,0,-2,-3,4,1,-1,-2,-2
1461661450560460,0,0,-3,-3,-2,1,-2,-2
1461661450575412,0,1,0,4,0,-1,-2,-1
1461661450575412,-1,1,0,-2,-3,-2,-2,-1
1461661450582419,-5,-5,0,-3,-2,0,0,0
1461661450582419,0,-1,0,-1,-1,0,-2,-1
1461661450598429,1,-1,-1,0,1,1,-1,-3
1461661450598429,1,0,-5,-1,-2,0,0,-1
1461661450599442,-2,-1,-2,-2,-1,-3,-2,-2
1461661450599442,0,-2,0,4,0,0,-1,0
1461661450612459,-1,-1,0,-2,-2,0,0,-1
1461661450612459,0,4,0,-4,-3,-1,0,0
1461661450620464,-2,-3,-3,0,-1,-3,-1,-4
1461661450620464,-2,-1,1,3,1,1,-1,-1
1461661450635514,-2,1,0,-1,-2,-1,0,2
1461661450635514,-2,-2,-1,-3,0,0,-1,-2
1461661450642460,0,4,2,-3,-3,-1,-1,-1
1461661450642460,0,-8,-7,-3,-1,-2,-1,-1
1461661450658472,-1,-2,-2,-1,-2,-1,0,-1
1461661450658472,-2,0,2,-1,-1,-1,-1,0
1461661450659471,-3,-4,-4,-3,-1,-2,-1,-2
1461661450659471,2,0,1,0,-2,-2,0,1
1461661450672540,2,-1,-1,2,1,-1,-1,-1
1461661450672540,0,-2,-1,1,-1,1,-1,-2
1461661450680499,-1,-1,-2,0,-1,-1,-1,0
1461661450680499,0,3,2,0,-1,0,1,0
1461661450695498,1,0,-1,-6,-2,0,0,0
1461661450695498,0,-1,-1,-3,-1,-1,-2,-1
1461661450702524,0,1,2,5,2,-1,-2,-1
1461661450702524,-3,-3,-4,1,0,-1,0,-1
1461661450718536,-3,-4,1,0,-1,-1,-1,-2
1461661450718536,-2,-3,-3,-3,-1,-1,-1,-3
1461661450719516,2,-1,-2,-7,-5,-3,-2,-2
1461661450719516,1,2,4,6,1,1,-1,-1
1461661450732536,-1,1,-1,-3,-1,-2,0,0
1461661450732536,-2,-3,-1,2,2,-1,0,-1
1461661450740541,-2,-4,-2,-4,-3,0,-2,-2
1461661450740541,-1,-3,-4,-2,-1,-1,-1,-2
1461661450755552,-1,1,0,-2,-1,-2,-1,1
1461661450755552,-2,1,-3,-3,-1,-1,-2,-2
1461661450762546,-1,0,0,-3,-1,-1,-2,0
1461661450762546,1,1,0,-7,0,0,-1,-1
1461661450778569,-2,-1,-1,5,-1,0,-1,-1
1461661450778569,0,-2,-2,0,-1,-2,-2,-2
1461661450779558,-4,-2,-3,3,1,-2,-2,-1
1461661450779558,-1,0,0,-2,0,-1,-2,-2
1461661450792568,0,-4,-1,-3,-1,-1,-2,-2
1461661450792568,0,1,1,2,0,0,0,0
1461661450800571,-2,-2,-1,-3,-2,-1,0,0
1461661450800571,-2,-1,-2,-2,-2,-2,-1,-1
1461661450815673,-1,1,0,-1,-1,0,-2,-1
1461661450815673,0,2,-1,1,0,-2,-2,-1
1461661450822745,1,-1,-4,-5,0,1,0,-1
1461661450822745,0,-1,-1,4,1,0,1,1
1461661450839693,-1,-1,1,-1,-2,-1,-1,0
1461661450839693,-1,-3,-1,-1,-2,-1,-1,-3
1461661450840712,-1,-2,-1,0,-1,-1,-1,-1
1461661450840712,-1,4,3,-1,-2,-2,0,-1
1461661450852711,-1,-1,-3,-1,1,0,1,-1
1461661450852711,-1,0,-1,-2,-1,-2,-2,-1
1461661450859734,0,0,-3,-2,-1,-2,-1,-1
1461661450859734,-2,-1,0,0,-1,-2,0,-1
1461661450891733,1,4,0,1,1,-1,0,0
1461661450891733,-2,-5,-4,-4,-2,-1,0,-1
1461661450892729,-1,-1,-1,1,1,-1,-1,-2
1461661450892729,0,3,2,1,0,0,0,0
1461661450898757,-3,-2,0,-2,-3,-2,0,-1
1461661450898757,-1,-3,-5,-4,-3,0,-2,0
1461661450898757,-1,-5,-2,-1,0,0,0,-2
1461661450898757,0,0,2,-2,0,-2,-1,-2
1461661450912741,0,1,0,-2,-1,-1,-1,-2
1461661450912741,0,0,1,1,-2,0,-1,-1
1461661450919804,0,-2,-1,4,-2,-1,-2,-1
1461661450919804,-4,-6,-6,-4,-2,-3,0,0
1461661450934815,0,-1,1,6,0,1,-1,-2
1461661450934815,-2,-2,0,-4,-2,-2,-2,-1
1461661450942763,-1,1,-2,-4,-3,-2,-1,-2
1461661450942763,-1,-2,-3,-3,-2,-1,-2,-1
1461661450958774,0,-1,0,-7,-5,-2,-1,-1
1461661450958774,-3,-3,-2,8,2,-2,-1,-1
1461661450958774,-2,-1,0,0,0,-3,-1,-3
1461661450958774,0,-1,-3,0,-1,-1,-1,1
1461661450972843,-1,-1,5,-1,1,-1,0,-2
1461661450972843,1,2,1,-4,0,-1,0,-1
1461661450979803,-2,-7,-2,-1,-1,-1,0,0
1461661450979803,-1,-1,0,-2,-2,0,-2,0
1461661450994798,0,2,0,3,2,-1,0,-1
1461661450994798,-2,0,0,-1,-1,0,0,-2
1461661451002807,-1,-2,-2,-2,-1,-1,-1,-1
1461661451002807,2,5,2,1,0,-1,-2,-1
1461661451018849,-2,-10,-8,-4,-1,-2,0,0
1461661451018849,-3,0,-3,-3,-3,-3,-2,-2
1461661451018849,0,1,2,1,-1,0,-2,1
1461661451018849,-1,-3,-2,3,0,1,1,-1
1461661451032829,1,0,-1,1,0,-1,-1,1
1461661451032829,-1,0,-3,-2,0,-1,-2,-3
1461661451039833,0,1,1,-4,-2,-1,-2,-2
1461661451039833,-1,-4,-1,-4,-2,-1,-1,-2
1461661451054842,1,1,-2,9,1,0,0,-2
1461661451054842,-2,-4,-2,-2,-2,-1,0,-1
1461661451062863,-2,2,1,-2,0,-2,-1,-2
1461661451062863,-3,-5,-3,-2,-1,1,0,-1
1461661451077857,0,1,-3,-9,-4,-1,0,-2
1461661451077857,-1,1,1,3,0,-1,-1,-1
1461661451085880,-4,-4,-3,-1,1,-1,-1,-2
1461661451085880,-1,-1,-2,-1,-1,-1,0,1
1461661451092882,-2,-4,-2,-3,0,0,0,1
1461661451092882,-2,-2,1,-3,-1,1,-1,0
1461661451099894,-2,-1,0,-1,-2,-1,-1,-1
1461661451099894,1,0,0,-1,-1,0,-1,-2
1461661451114942,-3,-2,-2,-2,-2,-1,-3,-2
1461661451114942,-1,-7,-6,-1,-1,-2,-1,-1
1461661451122947,-2,0,-7,-1,-2,-2,-2,-1
1461661451122947,0,0,2,0,1,-1,0,-1
1461661451137958,0,3,1,1,-1,-2,-1,0
1461661451137958,-1,-1,-1,-4,-2,-2,0,-2
1461661451145917,-2,-3,-4,0,-2,-1,-1,-2
1461661451145917,1,0,-2,-2,-2,-1,-1,1
1461661451152967,0,-3,-1,4,4,0,0,1
1461661451152967,0,-2,1,0,-1,-1,-1,0
1461661451159973,-1,1,-2,-1,-2,-2,-1,1
1461661451159973,0,3,-1,-6,-3,-1,-1,-1
1461661451174942,-1,5,6,5,1,2,0,-1
1461661451174942,-2,-5,-3,-1,-1,-1,-1,-1
1461661451182938,-1,0,0,2,1,-1,-2,-3
1461661451182938,-1,-4,-4,-1,0,-2,-2,0
1461661451197969,1,-2,-2,-8,-3,-1,-1,-1
1461661451197969,-3,1,2,8,1,-3,-1,-2
1461661451205973,-2,1,1,-2,-3,-1,-3,0
1461661451205973,-1,1,-1,1,0,-2,-1,-1
1461661451212969,1,-2,-6,-4,-1,-1,0,0
1461661451212969,-2,-1,0,-6,-3,-1,-2,-1
1461661451219958,0,-2,1,1,-1,0,-1,-2
1461661451219958,1,2,4,2,0,1,0,-1
1461661451234970,-3,-5,-4,-4,-2,-1,-1,-1
1461661451234970,0,-1,-1,-3,0,-1,-3,-1
1461661451242995,-1,-1,-3,-3,-1,-2,0,0
1461661451242995,0,3,-4,0,-1,-1,-1,2
1461661451258043,-2,-2,1,0,-2,0,-1,-2
1461661451258043,-1,-2,0,-4,-2,0,-1,1
1461661451266010,-1,4,-1,-4,-4,0,-1,0
1461661451266010,1,0,0,2,0,1,1,-1
1461661451281001,-2,0,-3,-6,-3,-3,-1,-2
1461661451281001,-3,-2,-5,0,0,-1,-2,-2
1461661451282001,-1,-2,2,-2,-1,-2,-1,-1
1461661451282001,-1,0,-3,4,0,0,-1,-1
1461661451295101,1,2,1,1,-1,0,0,1
1461661451295101,2,-3,-3,-5,-2,-1,-2,0
1461661451303115,-1,-7,-4,5,0,0,0,-1
1461661451303115,-2,0,-1,-4,-2,-1,-1,0
1461661451318143,0,1,1,0,2,0,0,-1
1461661451318143,0,2,2,-2,-1,-2,-1,-1
1461661451326137,-2,0,-3,-4,0,-1,-1,-3
1461661451326137,-3,-1,1,-2,-2,-1,-1,-1
1461661451341192,0,-1,-6,-4,-2,-1,-1,-1
1461661451341192,0,1,1,0,-1,-1,1,-2
1461661451341192,-2,-4,-3,-4,-1,0,-1,-2
1461661451341192,0,-1,1,5,1,-2,0,-2
1461661451355202,2,5,3,-4,-4,-1,0,1
1461661451355202,-2,-5,-2,1,2,1,0,-2
1461661451363184,-1,0,-2,-4,-2,0,0,-1
1461661451363184,-2,-1,-2,-3,-3,-2,-2,-2
1461661451379165,-4,-6,-4,-1,-1,-2,0,-1
1461661451379165,0,-1,-1,-1,-1,-2,-2,-1
1461661451386194,1,-2,0,3,-2,-1,0,0
1461661451386194,-1,-1,0,-2,1,-1,0,0
1461661451401205,1,0,0,-6,-2,1,-1,0
1461661451401205,-3,0,0,5,-1,-2,-2,-3
1461661451402178,-1,2,1,-1,0,-1,-2,-1
1461661451402178,2,0,-2,1,-3,0,0,2
1461661451415215,-3,-4,-2,0,-1,-3,-1,-4
1461661451415215,-2,-1,0,-3,-2,-1,-2,0
1461661451422206,1,2,-2,-5,-3,-2,-1,0
1461661451422206,0,-2,1,1,1,0,0,-1
1461661451437202,-1,-2,-2,1,1,0,-1,-2
1461661451437202,-4,-2,-1,-1,-1,0,-1,0
1461661451446208,-1,-1,2,3,0,-1,-2,0
1461661451446208,1,-1,-3,-4,0,0,-1,1
1461661451461237,-1,-5,-2,-4,-1,0,-2,-1
1461661451461237,-1,-3,-1,2,-2,-2,-1,-2
1461661451461237,1,1,0,2,1,-1,-2,0
1461661451461237,-3,-5,1,-4,-2,-4,-2,-2
1461661451475230,1,3,-1,5,0,-2,0,1
1461661451475230,-2,2,1,-4,-2,-2,-2,-1
1461661451482249,-2,-1,-2,-2,0,0,0,-1
1461661451482249,1,-1,-1,-1,0,-1,-2,-2
1461661451497259,-2,-1,1,5,1,0,0,0
1461661451497259,-3,-5,-5,-5,-3,1,-2,-1
1461661451506310,-2,-1,-1,0,-1,-1,1,-1
1461661451506310,-2,-2,-5,-3,-2,-1,0,-1
1461661451521292,0,0,1,-1,0,0,0,-1
1461661451521292,0,1,0,3,0,-3,-1,0
1461661451521292,-1,-2,0,0,-1,-1,0,-2
1461661451521292,-2,0,1,-1,-2,-2,1,-1
1461661451535330,-2,-3,-4,-6,-2,-2,-1,-2
1461661451535330,-1,-2,-1,1,0,-1,0,-1
1461661451542285,0,1,0,8,1,0,1,-1
1461661451542285,-2,-1,1,0,1,1,0,-2
1461661451557316,1,2,0,2,-1,-1,-1,0
1461661451557316,-2,0,-2,-6,-3,-2,0,-1
1461661451566294,-2,0,-2,-4,-1,-3,-2,-1
1461661451566294,-1,2,2,1,-1,0,0,0
1461661451581304,0,-5,-2,0,0,-1,-2,0
1461661451581304,-4,-7,-5,-4,-1,0,-3,-2
1461661451581304,0,-3,-3,-7,-2,-2,-2,-1
1461661451581304,0,3,3,8,3,0,1,0
1461661451595314,0,1,2,1,-1,0,-1,1
1461661451595314,1,0,-2,0,0,-2,1,0
1461661451602317,-2,-1,-2,-6,-4,1,-2,0
1461661451602317,-1,-4,-1,-2,0,-2,-2,-1
1461661451617360,-2,-1,-1,-2,-2,0,-1,-1
1461661451617360,-1,-1,0,-1,-3,-1,-1,-2
1461661451626349,-1,-1,0,3,1,0,0,-1
1461661451626349,-2,-1,-2,-4,-1,-2,-1,1
1461661451640404,1,1,1,4,1,0,0,1
1461661451640404,0,3,-2,-3,-1,0,-1,-1
1461661451641348,-2,-2,-3,-6,0,-1,-1,1
1461661451641348,1,-2,-1,4,1,2,0,0
1461661451655415,-1,0,0,-1,-3,-2,0,-1
1461661451655415,1,-3,-4,0,-2,0,0,-1
1461661451662419,-1,-2,-2,3,0,-1,-1,-1
1461661451662419,-2,-1,-2,-5,0,0,2,0
1461661451686418,-1,-1,-1,0,1,-1,0,2
1461661451686418,-1,-1,-4,-2,-4,-2,-1,0
1461661451687378,0,-4,6,-4,-6,-4,0,-1
1461661451687378,2,-1,1,1,0,0,-1,0
1461661451700407,-1,-1,-2,0,-1,0,-1,-1
1461661451700407,1,1,1,-1,0,0,-1,-2
1461661451701387,-3,-4,-4,3,0,-2,-2,-1
1461661451701387,-1,-2,-1,-2,-3,-3,-2,-2
1461661451715410,0,5,2,-2,-2,-1,0,-2
1461661451715410,-2,-4,-3,-1,0,-1,-1,-1
1461661451722415,-1,2,-1,-1,-2,0,-2,1
1461661451722415,-2,-4,-2,-2,-1,0,-2,-1
1461661451737415,-1,-2,-2,-1,0,0,0,0
1461661451737415,-4,-3,-1,-2,-3,-2,-3,-2
1461661451745419,0,-1,0,5,0,0,0,-1
1461661451745419,-1,-3,-4,-5,-2,-2,-1,-2
1461661451760490,0,0,-1,0,3,1,0,0
1461661451760490,-1,3,1,-2,-2,-2,-2,0
1461661451761432,0,1,-3,2,0,-2,-1,-1
1461661451761432,1,0,-5,2,1,0,0,1
1461661451775444,-2,1,4,-2,-3,-1,-2,-1
1461661451775444,1,0,2,0,-1,-3,-1,0
1461661451782460,0,1,0,-1,0,-1,0,0
1461661451782460,-2,-3,-4,-5,-3,-2,-1,-2
1461661451797471,-1,-2,-3,5,1,1,-1,-1
1461661451797471,-1,0,-1,1,0,0,0,-2
1461661451805510,-2,-2,-2,-2,1,0,-1,0
1461661451805510,1,1,-1,-2,-2,1,-1,-1
1461661451820535,1,-2,-2,0,-1,-1,0,0
1461661451820535,-3,-3,-3,-6,-1,-2,-2,-3
1461661451821506,-1,-2,-2,-1,-1,-2,-3,-2
1461661451821506,-2,0,0,0,-2,-1,-1,-1
1461661451835485,-2,-2,-3,-4,0,-1,-1,1
1461661451835485,-2,-1,-1,1,-1,0,-2,-1
1461661451842491,0,1,0,-6,-2,-2,0,-1
1461661451842491,-1,-7,-4,-1,0,-1,-1,0
1461661451859500,1,5,0,-2,-1,-1,-2,-1
1461661451859500,-2,-2,-3,0,-2,-2,-2,-1
1461661451865506,-1,-3,-1,-3,-2,0,-2,-2
1461661451865506,0,2,4,3,1,-2,-1,-2
1461661451880515,-1,-4,-1,-5,-2,-2,-1,-1
1461661451880515,-1,-3,-1,3,1,-2,-1,-1
1461661451881516,0,0,0,-1,-2,-2,-1,0
1461661451881516,-2,-2,-3,-4,-1,0,0,-2
1461661451895526,-3,-3,-2,3,1,1,0,-1
1461661451895526,0,-1,-4,-4,-2,-1,-2,-2
1461661451902531,0,4,5,0,-2,0,0,0
1461661451902531,2,4,1,-1,-1,-1,0,-1
1461661451917541,-1,0,-2,-5,-1,-2,-2,-1
1461661451917541,-6,-10,-7,-2,-3,-2,-1,-3
1461661451925598,-2,0,-2,3,2,0,0,0
1461661451925598,-2,1,1,-3,-2,-3,-2,2
1461661451940633,-1,0,-1,-2,-4,0,0,-2
1461661451940633,1,1,0,1,-2,-1,-1,-2
1461661451941609,2,-1,-1,1,0,-2,0,0
1461661451941609,1,-1,1,2,0,0,-1,-1
1461661451955634,1,0,-2,-1,-1,-1,-1,0
1461661451955634,0,-1,1,2,1,1,0,0
1461661451962669,-1,-2,-1,-4,-2,-1,-3,-2
1461661451962669,-3,0,0,0,0,1,-3,-1
1461661451977711,-1,-1,1,-2,-2,-1,-1,-1
1461661451977711,-2,0,2,-2,0,-1,-2,-2
1461661451985737,-2,-6,-5,-2,-1,1,-2,-1
1461661451985737,-1,-1,1,0,-2,-1,0,-1
1461661452000727,-3,-5,-8,-2,-1,-1,-1,-1
1461661452000727,0,-1,3,-3,-2,-1,-1,1
1461661452001729,1,2,1,2,-1,-1,-2,0
1461661452001729,0,0,-3,-1,0,0,-1,-1
1461661452014738,-2,0,1,-1,-2,0,-2,-1
1461661452014738,-2,-1,-4,-3,-2,-2,-1,-1
1461661452022743,-1,-3,-3,-2,-3,-1,0,0
1461661452022743,0,-3,1,5,1,2,0,-1
1461661452037784,0,-1,0,2,1,0,0,-1
1461661452037784,-1,0,-2,-4,-1,-2,-2,-1
1461661452053764,-2,-1,0,0,-1,1,-1,-1
1461661452053764,1,5,-2,-3,0,0,0,-2
1461661452059769,-1,-3,-1,0,-2,0,-1,-2
1461661452059769,-1,0,0,1,0,-1,-1,0
1461661452068777,-2,-2,-3,-4,-1,-1,-1,-2
1461661452068777,1,3,0,-1,-1,-1,0,0
1461661452074780,-5,-4,-3,-1,-1,-4,-1,-3
1461661452074780,-5,-4,-2,-4,-2,-1,-1,-4
1461661452082785,-1,-2,-3,-3,-1,0,-1,-1
1461661452082785,-2,-2,-2,-3,-1,-1,-2,1
1461661452097796,1,0,3,0,-1,-1,0,0
1461661452097796,-2,-1,1,-1,-1,-2,-1,-2
1461661452105862,0,2,-1,-4,-1,-1,-1,1
1461661452105862,-2,-3,1,-2,-1,0,0,0
1461661452119870,0,-4,-2,2,1,1,0,2
1461661452119870,-1,-5,-4,0,-2,-2,-3,0
1461661452128818,0,-1,-1,1,-1,-1,0,-1
1461661452128818,1,2,-2,-5,-5,-1,-1,1
1461661452134822,-1,-2,0,1,1,-1,-1,0
1461661452134822,-1,1,2,1,-2,-1,-2,0
1461661452142828,2,3,0,-1,0,0,1,0
1461661452142828,-3,-7,0,0,2,-2,-1,-2
1461661452157898,0,0,1,0,1,-2,0,-1
1461661452157898,-1,-2,0,3,0,-2,0,-1
1461661452164876,0,3,0,-2,-1,-2,-2,-1
1461661452164876,-1,0,-1,4,1,0,-2,-2
1461661452179958,-1,2,-2,-7,-3,-2,-1,0
1461661452179958,-2,-4,-3,0,0,-2,-1,-2
1461661452196970,-3,-1,-1,3,-1,-1,-2,-1
1461661452196970,1,-2,-2,0,0,-2,1,0
1461661452197971,2,-3,-2,-3,-1,0,-1,-2
1461661452197971,-2,0,-1,-8,-2,0,-1,-1
1461661452202966,-2,-2,0,6,-1,-1,0,-2
1461661452202966,0,3,0,-1,-2,0,-1,0
1461661452218029,-1,-2,1,-5,-4,-3,-3,-1
1461661452218029,-2,-2,-3,2,-2,2,1,-3
1461661452225040,-2,-2,0,-2,2,0,0,-1
1461661452225040,-1,-2,-3,-1,-2,-1,0,-1
1461661452240046,-1,0,-2,0,-1,-1,-1,-1
1461661452240046,0,-1,-2,-5,-2,-2,-2,-1
1461661452248007,-1,-2,1,-1,-3,-1,0,-2
1461661452248007,-2,1,0,1,0,1,-1,-1
1461661452263065,-2,-1,-2,-2,-3,-1,-1,-2
1461661452263065,-2,-3,-1,3,0,-1,-1,-2
1461661452264006,0,2,-1,1,-1,-1,-2,-1
1461661452264006,-2,-8,-4,-5,-3,-2,1,-2
1461661452278044,-1,2,1,4,3,0,0,-1
1461661452278044,-2,-1,-1,-1,-2,-1,-3,-2
1461661452285049,0,0,3,1,0,0,0,1
1461661452285049,-3,-5,-3,-3,1,-1,0,0
1461661452302059,-2,-2,-2,-2,-2,0,-1,-1
1461661452302059,-1,0,-1,-4,-3,-1,-3,-3
1461661452308064,0,-2,-2,-1,-1,-1,0,0
1461661452308064,0,0,-4,-1,-2,-2,0,-3
1461661452323065,0,-2,2,4,1,0,-1,-1
1461661452323065,0,1,1,0,-2,-1,-1,-1
1461661452324050,-1,-2,-2,-1,-1,1,0,-2
1461661452324050,0,0,0,-1,-2,-1,-2,-1
1461661452338076,-2,0,-2,-5,-3,-3,-2,0
1461661452338076,-4,-2,1,-3,1,-1,-2,0
1461661452345081,-2,-6,-3,2,0,-2,-2,0
1461661452345081,0,0,-4,1,2,-1,0,-1
1461661452360072,-1,0,4,-3,0,-1,0,-1
1461661452360072,-1,1,-2,-1,-2,-2,0,-1
1461661452368097,1,2,-5,-2,0,-1,0,-1
1461661452368097,0,0,0,0,-1,0,0,0
1461661452383100,-2,-3,-5,-2,-1,-1,-3,-2
1461661452383100,0,1,-1,-5,-3,-2,-1,-2
1461661452384098,0,1,0,-1,-3,1,0,-2
1461661452384098,0,0,1,-1,0,-1,-1,-1
1461661452398135,1,2,-2,0,1,0,1,1
1461661452398135,-3,-3,-1,0,-2,-1,-1,-3
1461661452405143,-2,-2,-4,-7,-3,-2,-2,0
1461661452405143,-1,-1,2,0,1,0,-1,-1
1461661452420153,-1,-4,-2,2,0,-1,0,0
1461661452420153,-1,0,-2,0,0,0,0,0
1461661452428120,-1,0,-2,-3,-1,-1,-1,0
1461661452428120,0,0,1,-1,-1,-2,-1,-2
1461661452443130,0,1,-1,2,0,-1,-2,-3
1461661452443130,-2,-6,-10,-3,-1,-1,-1,-3
1461661452444131,-1,1,5,-2,-1,0,-2,-2
1461661452444131,-2,-3,-2,-1,1,-1,-1,1
1461661452466161,0,3,3,6,1,2,-1,-1
1461661452466161,-1,0,1,0,-3,-2,-1,-2
1461661452467147,-3,-5,-4,-1,0,-1,-1,-1
1461661452467147,-2,-2,-3,-5,-3,0,-2,-1
1461661452480156,-2,-4,-2,-3,-1,0,-2,1
1461661452480156,-1,-3,0,0,0,0,-1,0
1461661452488182,0,2,-1,-2,-1,0,0,0
1461661452488182,1,1,3,4,0,-1,1,-1
1461661452503240,-2,-2,-4,-4,-3,-3,-2,-2
1461661452503240,0,-2,-2,-1,-1,-2,-1,0
1461661452504198,2,1,1,2,1,1,1,1
1461661452504198,0,-1,-6,-2,-3,-2,0,0
1461661452518206,-1,2,6,0,-2,-2,0,-3
1461661452518206,-2,-1,2,1,0,-1,0,-2
1461661452525214,-4,-8,-5,2,-1,-2,-1,-1
1461661452525214,-1,0,-2,-4,-4,-1,0,-1
1461661452540222,-1,-2,-6,-4,-1,-1,-1,1
1461661452540222,-2,-1,2,0,-2,-3,-2,-1
1461661452556235,-1,1,7,-1,0,0,0,-1
1461661452556235,-2,-5,-7,1,-1,-1,0,1
1461661452563273,-2,-4,-12,-6,-1,-1,-1,0
1461661452563273,1,-2,-8,0,0,0,-1,-1
1461661452564232,0,3,2,-2,-2,-1,-1,0
1461661452564232,-3,-1,12,0,-1,-1,-1,-2
1461661452577238,1,0,-1,0,-2,-2,1,0
1461661452577238,0,-6,4,-1,-1,-1,0,-1
1461661452585231,-1,0,7,-1,-1,-3,-2,0
1461661452585231,-1,0,-12,-2,-2,-1,-1,-2
1461661452609262,0,0,1,0,-1,-1,-1,-1
1461661452609262,-1,3,8,0,0,-1,0,-1
1461661452610279,-2,-6,-21,-1,1,0,-1,-1
1461661452610279,-2,-5,-7,-2,-1,0,-2,-3
1461661452623315,-1,-3,-4,1,-1,-3,-2,-1
1461661452623315,0,-2,-12,-9,-3,-1,-1,-1
1461661452624259,1,-5,12,3,0,-1,1,-1
1461661452624259,0,7,17,1,2,0,0,-1
1461661452637269,-2,4,-2,-1,-1,-1,-1,-2
1461661452637269,-1,-5,1,2,0,-1,-2,-2
1461661452645274,-1,4,0,-1,-3,-1,1,-2
1461661452645274,-1,-4,-10,-3,0,-1,0,-1
1461661452660313,0,0,10,2,-3,-2,-1,-2
1461661452660313,-3,1,18,-2,0,-1,-2,-2
1461661452668290,-1,-1,-20,-5,-1,-3,-1,2
1461661452668290,-1,-2,11,2,1,-1,1,0
1461661452683314,-1,-2,-10,-7,-2,-2,-1,-2
1461661452683314,-2,-3,-7,5,-1,-2,-1,0
1461661452684314,0,0,-4,3,1,0,0,1
1461661452684314,1,3,10,0,-1,-1,0,1
1461661452697312,-1,-1,4,-5,-1,0,-1,0
1461661452697312,1,-3,-25,0,1,1,-1,-1
1461661452705329,-1,1,6,1,-1,-2,0,-3
1461661452705329,1,3,-6,0,-2,-1,-2,-1
1461661452721339,0,-1,22,-2,-2,-2,0,-2
1461661452721339,-2,-2,0,-3,-3,-3,-2,-1
1461661452728332,1,1,-7,-5,0,0,0,-1
1461661452728332,-1,-5,-14,8,5,2,-1,0
1461661452751360,1,-1,-15,-1,-2,-2,-1,0
1461661452751360,-2,2,25,-3,-4,-3,0,-1
1461661452752360,0,-1,15,2,-1,1,-1,-2
1461661452752360,0,1,5,-5,-1,-1,-1,-1
1461661452757364,2,-5,-31,-2,3,2,-1,1
1461661452757364,-8,-5,5,-1,-3,-3,-2,-4
1461661452773403,-4,-8,-8,-3,1,-1,-3,-2
1461661452773403,2,6,12,-10,-3,-1,0,-1
1461661452780368,-1,-5,-8,0,-1,-2,-3,-2
1461661452780368,5,4,3,10,3,1,-1,2
1461661452788393,-2,2,7,-4,-2,-2,-1,1
1461661452788393,3,13,0,10,0,0,-1,0
1461661452803450,-1,-7,2,-9,-5,-1,-3,-1
1461661452803450,-1,-1,-5,-4,-1,-1,-2,-3
1461661452804387,0,-4,-16,6,3,1,1,-2
1461661452804387,-2,-10,-31,-9,-4,-1,-2,0
1461661452817459,-4,-2,-4,0,-3,-3,-1,-3
1461661452817459,1,2,4,5,9,4,2,0
1461661452825402,1,11,31,-5,-4,-1,-2,-2
1461661452825402,0,-9,-25,-11,-1,0,-1,0
1461661452840431,1,1,14,5,-2,-2,-3,-1
1461661452840431,-1,-3,-4,1,-3,-1,1,1
1461661452848417,2,2,-1,7,5,1,1,1
1461661452848417,-7,-6,6,5,-4,-5,-3,-3
1461661452863486,-1,-2,12,-9,-3,-2,-1,-2
1461661452863486,-1,-3,-8,-2,-2,-3,-2,-3
1461661452864447,1,-1,-8,-11,-4,-2,0,3
1461661452864447,5,3,8,6,0,-1,0,2
1461661452886502,-6,0,5,-5,0,-1,-2,-1
1461661452886502,-1,4,4,9,2,1,-1,-3
1461661452893467,-7,-4,2,-8,-3,-3,-3,-5
1461661452893467,-2,-12,-9,-9,-7,-1,-1,0
1461661452900465,3,5,23,21,8,2,2,-1
1461661452900465,-4,-9,-41,-18,-4,-2,-1,-1
1461661452908494,4,1,7,1,-1,-1,-1,0
1461661452908494,3,16,-16,30,6,-1,0,1
1461661452923532,3,8,74,1,-6,-3,0,4
1461661452923532,-11,-14,-58,-14,-2,-4,-2,-3
1461661452924502,-1,-2,-2,5,-3,-2,-2,-3
1461661452924502,-2,-4,6,-7,1,2,1,-2
1461661452937509,-4,4,-21,-3,-4,1,2,-4
1461661452937509,0,3,16,4,0,1,-4,0
1461661452945514,1,-5,-4,9,6,-2,1,-1
1461661452945514,-4,-3,-11,-4,1,-1,3,-1
1461661452960499,5,-5,-16,-1,0,-1,-1,4
1461661452960499,-8,-6,10,-29,-15,-6,-5,-4
1461661452968518,-4,-3,8,11,-3,-2,-2,-2
1461661452968518,-4,1,19,-21,-3,-4,-4,-2
1461661452982512,-2,2,-17,38,14,13,20,-3
1461661452982512,9,11,8,-49,-15,3,-4,7
1461661452990556,9,4,49,34,7,-5,-9,10
1461661452990556,-3,-6,-57,-18,-4,-11,-10,-2
1461661452997561,-7,-20,-53,-5,-5,-7,1,-4
1461661452997561,-1,-1,52,-31,0,3,-3,-2
1461661453005567,-10,8,11,28,-7,2,1,-6
1461661453005567,-10,-26,4,7,6,0,2,0
1461661453020577,7,-9,9,7,7,-2,-4,-1
1461661453020577,-1,20,-43,8,4,6,20,-4
1461661453028556,20,16,25,-17,2,14,13,10
1461661453028556,-9,19,-8,4,0,-8,-21,-4
1461661453042554,-1,-4,-14,-2,-4,-7,0,1
1461661453042554,-12,-12,17,13,0,-8,-14,-3
1461661453050571,-6,-5,-33,-59,-17,-22,-16,-12
1461661453050571,15,10,21,24,-9,9,19,12
1461661453057624,6,-22,-21,-14,6,13,-3,12
1461661453057624,6,12,42,-12,-14,-13,-29,-6
1461661453065629,-16,-12,-19,23,5,-8,-5,-14
1461661453065629,-11,-15,-39,-35,0,-2,7,-11
1461661453080581,8,15,8,-17,-3,1,4,8
1461661453080581,-15,-26,7,41,12,7,1,7
1461661453088643,-2,-6,-27,-32,-20,-12,-6,-1
1461661453088643,11,19,16,51,23,16,20,0
1461661453102605,-16,35,-16,-74,-11,2,16,-12
1461661453102605,12,29,29,69,7,-1,-1,0
1461661453110660,19,-16,-2,-22,-1,5,-7,13
1461661453110660,15,-33,24,87,39,3,19,19
1461661453117664,-16,-17,-3,-3,-12,-21,-46,-22
1461661453117664,15,-26,-12,-28,-17,-8,26,5
1461661453125629,-9,-45,-11,-23,-1,23,34,20
1461661453125629,-24,2,16,-56,-30,2,-39,-31
1461661453140688,-14,-35,11,13,0,10,9,-13
1461661453140688,38,68,-36,-52,-12,-7,-3,17
1461661453147641,23,-13,23,90,22,-38,-53,1
1461661453147641,-11,-85,-8,-12,-34,-36,-6,-5
1461661453162699,-2,-20,32,-82,-26,0,8,-6
1461661453162699,-26,-66,-34,85,47,22,10,-5
1461661453170705,4,68,15,72,36,23,27,4
1461661453170705,-29,-42,-4,-98,-38,-1,-2,1
1461661453185714,0,30,-6,76,30,3,-15,-5
1461661453185714,-16,-32,38,-6,-6,-6,18,-14
1461661453186658,-13,16,-39,-110,-37,-1,-2,-10
1461661453186658,38,28,35,56,30,15,21,23
1461661453201667,25,-57,-20,-21,-9,5,22,27
1461661453201667,-7,-34,3,-12,-7,-15,-50,-11
1461661453207701,7,-33,6,6,-3,10,3,-18
1461661453207701,-7,4,-9,-34,-10,11,10,4
1461661453222697,27,6,-13,-1,-2,-18,11,21
1461661453222697,4,15,-15,-30,-22,-39,-68,-11
1461661453230702,24,29,55,80,15,-10,-24,-8
1461661453230702,-21,6,-30,-39,-4,17,46,-12
1461661453245714,-6,28,23,2,16,18,-29,-2
1461661453245714,-20,0,-11,1,4,-15,14,-9
1461661453246700,-33,-36,-87,-73,-33,-25,-27,-14
1461661453246700,20,3,55,3,-4,10,18,3
1461661453259707,-32,0,-35,62,31,21,3,-8
1461661453259707,-25,21,-9,12,16,13,26,6
1461661453267752,12,26,-10,-41,-12,0,50,24
1461661453267752,48,42,23,-17,-14,10,2,12
1461661453282725,25,25,12,5,9,3,-54,1
1461661453282725,-17,34,-15,7,-5,-46,-12,-9
1461661453290792,-35,3,-1,29,13,19,105,6
1461661453290792,-8,20,-16,-40,1,27,-46,-3
1461661453305769,37,2,51,-11,-40,-55,-64,-37
1461661453305769,-22,3,-19,22,8,2,-24,-7
1461661453306742,-11,-2,-8,-63,-9,5,-9,-11
1461661453306742,-1,4,-26,52,43,29,61,20
1461661453319771,-4,5,-6,4,-28,3,12,17
1461661453319771,12,7,61,68,8,-18,-11,2
1461661453328775,-12,-2,22,-46,-32,-25,-26,-10
1461661453328775,43,8,26,90,45,22,15,13
1461661453343768,-74,32,-25,-112,-40,36,70,11
1461661453343768,41,114,-74,13,19,11,-62,-26
1461661453350772,42,120,32,47,50,-3,9,11
1461661453350772,-65,103,-57,-92,-27,-10,-31,-17
1461661453365821,-36,124,8,1,-15,-50,4,-17
1461661453365821,72,106,29,21,-10,15,42,44
1461661453366798,61,109,25,3,2,12,-44,11
1461661453366798,-46,88,15,-19,-10,-1,44,-19
1461661453388820,-25,-46,9,13,29,17,-21,-17
1461661453388820,-21,-25,-31,-49,-29,-22,10,22
1461661453388820,-13,-34,-31,-54,-27,4,2,3
1461661453388820,6,117,45,8,-2,-22,-39,-22
1461661453402820,66,111,7,-4,11,19,8,9
1461661453402820,-11,-54,32,39,50,50,60,5
1461661453410873,-79,-111,-42,-38,-23,-16,-77,-35
1461661453410873,13,-128,11,-128,-72,-46,30,2
1461661453425986,20,-128,-60,87,71,32,-18,19
1461661453425986,50,-105,7,-39,-4,-32,-53,-29
1461661453426987,-49,-117,-23,-51,-83,-36,-18,-11
1461661453426987,18,-128,58,107,61,20,4,15
1461661453440002,58,-109,5,-82,-18,-9,39,42
1461661453440002,-47,-97,-27,-85,6,33,10,-29
1461661453447989,-27,-81,-36,-52,-10,-9,-18,-30
1461661453447989,15,-70,31,71,-21,-11,32,-6
1461661453463057,-56,-55,1,65,23,-4,-13,0
1461661453463057,12,-41,-29,-46,-43,-11,-14,-6
1461661453471063,29,-107,23,7,4,10,-6,-3
1461661453471063,63,-122,-60,-5,1,-36,-1,32
1461661453486073,-64,-128,39,-40,-12,18,36,-22
1461661453486073,-45,-1,18,-18,-9,27,-5,-24
1461661453487016,64,115,-9,-37,11,-15,58,75
1461661453487016,33,85,-11,41,53,6,-68,3
1461661453500036,111,-34,-25,-105,-80,-37,-11,16
1461661453500036,85,23,5,90,42,42,37,0
1461661453508089,-66,69,-11,-39,-6,-9,33,-34
1461661453508089,6,60,30,65,9,-10,-52,-6
1461661453523100,5,-53,-5,-95,-38,4,-15,-25
1461661453523100,52,4,44,-30,4,-24,22,42
1461661453531058,0,60,-48,-30,-7,17,4,1
1461661453531058,-3,60,-33,5,-1,4,19,-11
1461661453554121,-6,-34,-5,122,45,-4,-17,-7
1461661453554121,-73,-7,-18,38,5,17,38,22
1461661453555082,40,57,49,52,45,57,21,14
1461661453555082,-128,36,-30,-116,-48,-22,-42,-59
1461661453560068,5,-37,15,6,-12,-63,-24,8
1461661453560068,-51,3,5,-14,-1,-44,20,-3
1461661453568138,58,47,-2,26,6,4,-22,-21
1461661453568138,3,17,-10,-26,-2,57,-16,11
1461661453584090,18,-29,21,23,4,2,-4,-16
1461661453584090,-34,9,-10,-91,-40,-3,-5,-12
1461661453591097,8,6,19,-40,-1,10,11,-12
1461661453591097,-3,-69,-14,76,11,-23,14,9
1461661453606105,-12,-25,-17,14,17,-4,-12,10
1461661453606105,20,-33,58,-116,-61,-22,-22,-1
1461661453607105,2,42,-6,127,112,37,23,4
1461661453607105,5,57,-22,-43,8,1,-22,-1
1461661453620112,-43,-8,7,-50,-19,-11,26,-9
1461661453620112,-16,12,-21,20,-9,14,25,10
1461661453628117,19,40,31,-14,-23,3,-9,13
1461661453628117,-12,40,-20,-15,-11,-27,-39,-8
1461661453643126,-47,-1,-19,17,3,-54,-69,-41
1461661453643126,76,5,-11,1,11,-23,5,16
1461661453651134,-89,14,9,17,-6,40,27,21
1461661453651134,43,18,19,-4,-10,0,-6,13
1461661453666216,-12,5,-1,-6,-10,79,18,-18
1461661453666216,5,2,-2,26,20,17,-14,-20
1461661453667191,8,21,-2,7,-7,-32,-11,-2
1461661453667191,22,14,-20,-128,-92,-36,20,7
1461661453680211,-7,1,14,96,97,33,20,8
1461661453680211,-7,18,-17,11,32,5,-9,5
1461661453688218,-1,30,1,-71,-43,-34,-15,3
1461661453688218,3,104,6,72,50,15,13,6
1461661453703202,-6,125,-25,-63,-42,-28,-9,-13
1461661453703202,10,1,24,-18,-4,6,1,10
1461661453711224,12,-66,-32,35,5,-3,17,12
1461661453711224,62,-121,26,-27,-1,5,-32,-18
1461661453726219,-30,-8,-5,20,3,-1,26,60
1461661453726219,-8,-112,-11,4,6,13,-43,-30
1461661453726219,13,-87,13,-16,-24,-84,-47,-23
1461661453726219,63,36,4,8,-5,-37,-46,-15
1461661453750235,-36,127,-2,18,15,72,61,18
1461661453750235,-33,127,-21,-14,-19,37,11,-2
1461661453750235,3,77,7,11,8,7,-4,-6
1461661453750235,-11,83,-2,13,-2,-6,14,2
1461661453764246,45,127,-21,-79,-35,-28,-6,-10
1461661453764246,-14,126,37,28,12,1,0,-5
1461661453771263,-4,16,-14,34,27,14,-7,-6
1461661453771263,-24,-17,22,-31,6,-1,15,1
1461661453786326,2,43,-39,6,6,-3,-9,-14
1461661453786326,-19,-8,-12,24,6,-2,2,-15
1461661453786326,-11,-56,-7,2,-6,0,-5,-8
1461661453786326,-21,-38,10,5,4,14,11,11
1461661453808336,61,-22,0,-24,-19,-4,14,-1
1461661453808336,-36,-16,2,-4,-16,-31,-13,12
1461661453809292,-67,-108,-15,2,1,-12,-23,-29
1461661453809292,-33,-59,-7,-5,2,29,20,-14
1461661453823310,1,-98,23,13,4,-10,-28,-12
1461661453823310,58,-97,-26,-2,2,-1,17,32
1461661453831313,23,56,12,-56,-30,1,-7,-1
1461661453831313,-30,-1,9,54,19,5,6,1
1461661453846307,8,97,-3,-14,-11,-21,-1,-11
1461661453846307,-3,90,7,32,12,15,12,-5
1461661453846307,2,15,9,-18,-4,10,1,8
1461661453846307,12,16,7,5,18,5,0,4
1461661453860314,-3,93,8,-14,-5,-8,-1,-2
1461661453860314,-4,9,-31,-35,-18,-9,-6,-2
1461661453867385,4,-42,11,35,6,8,1,1
1461661453867385,-13,-111,-11,-15,-13,-8,0,-8
1461661453882351,-8,-98,20,23,3,-13,-13,-1
1461661453882351,48,18,6,-10,-8,-6,-7,-2
1461661453891357,-38,-107,-5,15,15,8,-4,2
1461661453891357,11,-103,0,-11,-7,-6,12,17
1461661453906366,-14,-128,-10,-3,2,48,14,20
1461661453906366,37,-128,-6,4,6,24,15,-8
1461661453906366,-25,-7,-7,-2,-2,20,-10,-12
1461661453906366,-32,59,5,-4,-12,-36,-43,-12
1461661453921369,4,100,-6,-2,-1,-26,-6,-3
1461661453921369,2,106,6,-21,-18,-22,-3,3
1461661453927361,35,82,15,57,39,17,24,7
1461661453927361,-6,79,-11,-23,-12,11,7,2
1461661453951417,4,79,29,24,11,-14,-9,-2
1461661453951417,-15,47,-22,-2,8,16,5,2
1461661453952379,11,35,27,-58,-25,-11,3,6
1461661453952379,1,69,-16,80,57,13,6,4
1461661453965428,-1,119,11,-10,-8,-5,-1,-5
1461661453965428,-25,116,14,0,-4,-12,-9,-9
1461661453973433,17,127,-41,-16,-11,-4,-3,3
1461661453973433,25,127,4,-26,-13,-17,-4,3
1461661453980416,-6,120,-2,-6,-12,2,-1,9
1461661453980416,-54,103,10,7,5,-1,-13,-10
1461661453987442,29,45,3,6,1,19,15,8
1461661453987442,3,28,-1,-12,-7,57,26,0
1461661454002426,-17,-44,-14,7,5,-12,-6,-3
1461661454002426,1,-87,5,-6,-11,-28,-16,2
1461661454011436,-1,-33,-1,7,7,-2,-3,-7
1461661454011436,9,-105,-7,-18,-16,-23,-4,-6
1461661454025431,5,-93,-5,-6,-2,6,6,0
1461661454025431,-4,-99,6,7,3,-4,-5,-1
1461661454033468,6,-78,1,-4,-3,-7,-1,1
1461661454033468,-2,-73,-23,-21,-15,0,4,2
1461661454040501,-3,-72,58,20,12,-3,-6,-10
1461661454040501,3,-74,-45,8,1,7,2,-4
1461661454047458,2,-74,-10,-22,-7,-8,-2,-2
1461661454047458,-15,-37,1,-39,-26,-4,-3,-3
1461661454062516,-3,-46,-14,51,26,-1,0,-3
1461661454062516,10,-13,21,8,-1,3,6,-1
1461661454071479,-1,48,10,17,8,6,3,1
1461661454071479,-18,56,-24,-28,-9,-20,-8,-5
1461661454085623,-1,37,0,-18,-12,-11,-8,-7
1461661454085623,3,17,6,-5,-3,3,-2,4
1461661454093569,3,-4,-17,2,-1,29,13,7
1461661454093569,-6,8,13,7,6,6,6,4
1461661454108646,7,1,-14,-6,-8,0,3,4
1461661454108646,5,-27,-2,2,2,-5,-6,-3
1461661454109596,-7,-38,13,-8,-6,-16,-12,-5
1461661454109596,1,-13,-3,14,7,-6,-7,-4
1461661454122650,-1,-21,-23,-7,-6,2,4,2
1461661454122650,-2,-37,2,-17,-8,-1,1,2
1461661454130595,0,-49,-1,1,1,-9,-3,-1
1461661454130595,1,-21,20,10,6,4,0,3
1461661454145606,-3,-10,51,-6,-6,-4,-5,-7
1461661454145606,-4,-13,-72,-7,-1,6,3,-2
1461661454153632,6,10,33,7,1,-5,-3,2
1461661454153632,-7,0,-8,7,5,-5,-1,-1
1461661454168624,-4,-18,-9,-15,-8,-1,-2,-7
1461661454168624,-1,-7,20,2,-1,3,2,1
1461661454169644,1,-3,-3,3,2,-3,1,8
1461661454169644,-1,-9,-15,1,-3,-1,-2,-2
1461661454182632,-1,-2,2,-5,-3,0,-3,-6
1461661454182632,2,20,10,2,0,4,4,4
1461661454190697,-1,-9,-20,-7,-5,-10,-3,-1
1461661454190697,-3,-9,22,9,3,4,-3,-3
1461661454205713,-4,12,-11,3,2,2,-2,-4
1461661454205713,1,12,12,3,0,0,2,1
1461661454213714,0,26,-41,-7,-2,-2,-2,0
1461661454213714,-5,-5,15,2,-1,-5,-3,-5
1461661454228677,-1,-23,-16,-7,-2,-2,0,-1
1461661454228677,0,-15,13,0,0,0,1,1
1461661454229679,2,-18,18,7,1,-1,-2,1
1461661454229679,2,-21,-16,4,2,1,1,1
1461661454243676,1,-22,3,-2,-4,-3,-3,-2
1461661454243676,1,-22,2,-5,-4,-1,-1,-2
1461661454250700,-1,-24,7,1,1,-1,-2,-2
1461661454250700,1,-22,-10,-4,1,0,0,-1
1461661454265719,-2,-15,-9,-8,-5,-1,-1,-3
1461661454265719,0,-2,-3,-2,-2,-1,0,-1
1461661454273756,0,-4,-2,3,0,0,0,2
1461661454273756,-1,-6,9,-2,-2,0,-1,0
1461661454288767,-1,-3,-9,-2,-2,1,-2,-2
1461661454288767,-2,17,4,-2,-2,-2,0,-2
1461661454288767,-1,10,-1,3,2,0,-2,-1
1461661454288767,-1,12,-1,-2,-2,0,-2,-2
1461661454302807,-2,1,-16,-7,-4,-2,-1,-2
1461661454302807,-2,-6,-2,5,1,-2,-1,-2
1461661454310872,3,3,3,1,0,-1,-1,0
1461661454310872,0,19,41,7,0,1,-2,-1
1461661454324881,-7,7,-38,-8,-2,-2,-1,-2
1461661454324881,-3,4,-7,-3,2,2,1,-3
1461661454332841,-2,-1,-6,1,1,-3,-2,-2
1461661454332841,0,-5,-8,-7,-1,0,-1,-1
1461661454357847,-1,6,9,4,-1,-1,0,-4
1461661454357847,-4,10,4,-3,-4,0,0,-3
1461661454358849,-1,-3,4,5,1,-1,-1,-2
1461661454358849,-3,-6,-16,-2,-1,0,1,-1
1461661454362909,-4,-5,0,-4,-1,-2,-2,-4
1461661454362909,-2,-3,-3,-6,-2,0,-1,-1
1461661454370915,0,1,9,-1,-1,0,0,-3
1461661454370915,-1,2,-2,-1,-1,1,-2,-1
1461661454384925,-4,-4,-3,-3,-3,-4,-3,-2
1461661454384925,1,-1,-1,0,-2,-1,-2,1
1461661454393901,-1,3,6,-1,-1,0,0,0
1461661454393901,0,2,-6,0,0,-2,-2,0
1461661454408883,1,5,11,0,-2,-1,0,0
1461661454408883,2,4,2,2,1,-2,-1,0
1461661454408883,0,-1,-12,-1,-1,0,-2,1
1461661454408883,-2,2,-5,-3,-1,-1,-1,0
1461661454422908,0,2,3,-4,-1,-1,-1,0
1461661454422908,-2,-1,-7,-5,-4,-2,-2,0
1461661454430913,0,6,10,2,0,0,1,0
1461661454430913,2,4,1,6,5,2,1,0
1461661454444925,0,2,-6,-1,0,-1,-1,0
1461661454444925,2,8,-4,-7,-3,0,-1,-1
1461661454453064,-3,0,6,15,4,-1,1,0
1461661454453064,-3,0,-7,-2,-1,-2,0,0
1461661454468018,-2,1,-6,-1,-2,0,-1,0
1461661454468018,1,6,7,-3,-1,-1,0,1
1461661454469018,-5,-15,-30,-13,-8,-2,-2,0
1461661454469018,-2,0,1,-1,-2,-1,-2,-2
1461661454483056,0,1,0,7,2,0,-2,2
1461661454483056,0,-2,1,0,-1,1,2,-3
1461661454491062,1,10,5,-9,-3,-3,0,-1
1461661454491062,-2,-3,-3,-2,-3,-3,-1,-4
1461661454505073,-2,-2,-6,-6,-2,-2,-2,-3
1461661454505073,0,-1,3,2,-1,-1,-1,1
1461661454513063,1,-3,6,-1,-2,0,-1,0
1461661454513063,0,-2,-14,-5,0,-1,-2,0
1461661454528075,-2,1,12,-7,-4,-3,-4,-3
1461661454528075,-1,-2,-3,11,1,-1,1,-1
1461661454529059,1,3,12,-2,-2,-1,0,0
1461661454529059,-2,-6,-1,-3,-3,-3,-1,-2
1461661454543069,-2,-5,-10,-6,0,-2,0,-2
1461661454543069,2,2,5,3,1,1,-1,1
1461661454551114,2,0,-17,-4,0,-1,-2,-1
1461661454551114,-1,13,19,1,-2,-2,0,-2
1461661454565124,-4,5,-2,-1,1,-1,-1,-3
1461661454565124,-2,3,5,2,2,0,1,0
1461661454573102,2,5,-4,3,1,-1,-1,0
1461661454573102,0,-7,-11,-3,-2,-3,-2,-1
1461661454588122,-1,-7,-6,-2,-1,-2,-1,-2
1461661454588122,-1,-1,0,-7,-5,0,-2,-1
1461661454589103,0,-2,5,2,1,-1,-2,-2
1461661454589103,-1,-3,0,1,1,2,0,0
1461661454603117,-1,-3,-4,0,0,0,0,0
1461661454603117,0,-4,-3,-3,-1,-1,-2,-1
1461661454611156,-2,-5,-5,-7,-3,-2,-1,-2
1461661454611156,-2,-2,-6,-9,-4,-1,-1,-1
1461661454625194,0,0,8,15,4,0,-1,-2
1461661454625194,0,-2,3,-4,-2,-1,-1,-1
1461661454633154,-2,-7,-2,-3,0,0,-1,-1
1461661454633154,0,-4,-9,-3,-1,-1,-1,-3
1461661454648165,1,-3,-1,-1,-1,-1,-2,-1
1461661454648165,1,-2,-9,-4,0,-1,-1,0
1461661454649145,1,8,16,12,1,-2,0,-1
1461661454649145,1,7,22,2,0,0,-1,1
1461661454663157,-2,-1,11,-4,-4,-1,-1,0
1461661454663157,-4,-5,-19,1,-1,-2,-1,-1
1461661454671175,-1,3,-10,-7,-2,-2,-2,0
1461661454671175,1,-1,-12,2,0,0,-1,0
1461661454685230,1,3,2,1,2,0,0,-1
1461661454685230,-1,-4,1,-3,-1,-1,-1,-1
1461661454693177,1,0,-1,2,1,-1,-1,-1
1461661454693177,0,-2,2,-1,-1,-1,-2,0
1461661454716194,-1,-4,-3,-5,-4,-1,-1,-2
1461661454716194,1,1,1,5,1,-1,0,-1
1461661454717195,-3,-5,2,-7,-3,0,0,-1
1461661454717195,-2,-1,-8,1,0,-2,-2,-1
1461661454722210,-3,3,-6,0,-2,-1,-1,-2
1461661454722210,-3,-1,-7,-6,-5,-1,-1,-2
1461661454731203,-3,-4,5,-7,-4,-1,-1,-2
1461661454731203,2,3,13,11,3,2,0,-1
1461661454745212,-2,-12,-8,-4,-3,-2,0,-2
1461661454745212,-1,3,9,4,2,-1,2,-1
1461661454753218,2,-3,-12,0,2,1,-2,-1
1461661454753218,-3,-10,-8,-6,-4,-2,-1,-1
1461661454768229,-1,1,-4,2,-2,-1,-2,-1
1461661454768229,-2,-5,1,3,0,0,-1,-1
1461661454769229,2,8,0,-1,0,0,1,-1
1461661454769229,-1,-14,-5,-1,0,1,0,-1
1461661454782238,-3,-3,-2,-4,-3,-2,-4,-1
1461661454782238,-1,1,-2,-4,-2,0,0,-1
1461661454791248,-2,-3,0,3,2,-1,-1,0
1461661454791248,0,6,-1,-1,-3,-2,-1,-1
1461661454805258,-1,-1,-3,-4,-3,-2,-2,-1
1461661454805258,-1,-3,1,0,1,0,-3,-1
1461661454813260,-1,-1,-3,-5,-4,-1,0,0
1461661454813260,-1,3,1,6,2,-2,-1,-5
1461661454828271,-1,-4,-2,0,-3,-1,0,-2
1461661454828271,0,3,-4,-2,-2,-2,-1,-2
1461661454829271,0,2,-3,2,0,1,0,-1
1461661454829271,-3,-3,-5,-7,-1,-1,0,1
1461661454842282,1,7,17,-2,-2,-2,0,0
1461661454842282,-2,-1,4,-5,-4,-3,-1,-1
1461661454851346,-3,-3,-6,2,1,-1,0,-1
1461661454851346,2,12,16,5,2,0,2,3
1461661454865309,-4,-6,-11,1,0,-2,-1,-2
1461661454865309,-2,-5,-1,-4,-2,-2,-3,-2
1461661454873322,-1,-1,-3,-4,1,-2,-2,-1
1461661454873322,0,4,-2,-4,-2,-2,0,-1
1461661454887370,-3,3,3,-3,-2,0,1,0
1461661454887370,-2,1,2,-4,-1,-3,-2,-3
1461661454896379,0,-2,1,9,0,-1,-1,-2
1461661454896379,1,-1,-8,-1,-1,-1,0,-1
1461661454904341,-1,-2,1,1,1,-1,-2,-2
1461661454904341,-1,-3,-1,0,-4,-1,-2,-3
1461661454911342,0,2,3,-4,-1,-2,-1,1
1461661454911342,-2,-2,-2,-1,0,1,-1,-1
1461661454925398,0,0,-10,-10,-4,-1,-1,0
1461661454925398,-3,-4,-4,4,1,-2,-2,-3
1461661454933387,-2,-4,9,0,0,-1,-1,-1
1461661454933387,2,-5,-2,-3,-2,-2,-2,0
1461661454948358,0,-1,-4,0,1,0,-1,-1
1461661454948358,1,1,-2,-3,-1,0,-2,-1
1461661454956477,-2,-4,-5,-2,-2,-1,-2,-1
1461661454956477,-3,0,7,-4,-3,-3,-2,0
1461661454962481,-2,-7,-2,5,-1,-3,-3,-2
1461661454962481,-2,1,5,1,0,1,-2,0
1461661454970486,-1,1,-3,-3,0,0,0,-1
1461661454970486,1,-1,-5,2,1,1,0,0
1461661454985495,-2,-2,-5,-1,-1,1,-2,-3
1461661454985495,-4,-3,-2,1,-1,-1,-1,-2
1461661454993500,0,-1,1,3,1,0,-1,0
1461661454993500,-2,3,5,-4,-3,-1,-1,-1
1461661455007512,-3,-1,-5,0,-1,-1,0,-2
1461661455007512,0,-1,-4,2,2,0,1,2
1461661455016517,-2,-2,-1,-2,0,-1,-1,-1
1461661455016517,-2,-4,-1,0,-1,1,0,-2
1461661455022522,-1,-2,-5,-2,-1,-1,-3,-2
1461661455022522,1,5,-5,-8,-3,-1,-1,0
1461661455030528,-1,-3,6,-2,-3,-4,-1,0
1461661455030528,-1,-1,-2,2,1,-1,-1,-1
1461661455054578,1,2,-1,-3,1,0,-2,0
1461661455054578,-2,-4,-3,-2,-3,-1,1,-1
1461661455054578,3,7,2,2,-2,-1,0,0
1461661455054578,0,-6,-11,-8,-2,-2,-2,0
1461661455067560,-1,1,5,8,-1,-3,0,-3
1461661455067560,2,1,1,0,-1,-1,0,-2
1461661455075589,1,1,3,-4,-2,0,1,-2
1461661455075589,-3,-11,-13,-4,-2,-2,-1,-3
1461661455091577,0,3,6,-3,-2,-1,-2,-2
1461661455091577,-1,-3,-5,-6,-5,-1,-1,1
1461661455092573,-3,-9,0,5,1,0,-1,1
1461661455092573,-1,1,-3,3,1,-1,-1,1
1461661455105610,-3,-8,-6,-2,1,-1,0,1
1461661455105610,1,2,5,1,0,-2,-1,1
1461661455113602,4,9,-1,1,-2,-1,-1,1
1461661455113602,-3,-2,2,1,-2,-3,-3,-2
1461661455127612,-5,-10,-12,-3,0,-1,-2,0
1461661455127612,0,4,6,1,-2,-2,-1,0
1461661455135619,1,4,1,-5,-2,-1,0,0
1461661455135619,0,1,-1,-1,0,0,-1,-2
1461661455151672,2,4,1,0,-1,-2,0,-1
1461661455151672,-2,-5,-7,-7,-1,0,0,-3
1461661455152627,-1,-2,-3,8,3,0,-2,-1
1461661455152627,1,-3,2,3,-1,-1,-1,-1
1461661455165682,1,4,8,-3,-3,0,-1,-1
1461661455165682,-4,-16,0,-2,0,-1,-2,0
1461661455173688,0,0,0,-1,-3,0,0,0
1461661455173688,-6,-4,-9,-10,-5,-2,-1,-4
1461661455187698,-1,1,5,1,-3,-1,-1,0
1461661455187698,0,4,-7,-1,0,-2,-1,0
1461661455195656,1,-1,-9,-4,-2,2,-1,0
1461661455195656,-2,-3,-3,0,0,-2,-1,-1
1461661455211669,-2,-7,-6,-1,-5,-2,-2,-2
1461661455211669,4,16,19,5,2,0,0,-1
1461661455212688,-4,-14,-1,5,1,-2,-3,-1
1461661455212688,-2,-1,-2,-6,-3,-3,-2,-2
1461661455225691,-2,0,-2,-3,-1,-2,-1,-2
1461661455225691,-3,-4,-8,-5,-2,0,-2,-1
1461661455233680,-4,0,-5,-7,-2,0,1,-3
1461661455233680,0,3,6,4,0,0,-3,-2
1461661455247688,-3,-6,-9,1,-1,-1,-1,-3
1461661455247688,-2,-2,0,1,-1,-1,-1,-1
1461661455256694,-1,0,4,-3,-1,-1,0,-1
1461661455256694,-3,-5,-5,2,0,-1,-2,-3
1461661455271700,0,6,3,-4,1,1,-3,-1
1461661455271700,0,0,0,4,2,1,0,0
1461661455272701,-2,-5,-2,-4,-1,1,-1,0
1461661455272701,2,4,-5,-1,-2,-2,0,-2
1461661455285715,-1,-2,-3,-3,1,-2,-1,-2
1461661455285715,-1,-3,1,6,-1,0,1,-2
1461661455293734,1,7,9,-2,0,1,-1,-1
1461661455293734,-2,-3,-2,0,1,0,-1,-2
1461661455307782,-1,-2,-6,-3,-3,0,-1,-2
1461661455307782,-4,-6,1,-7,-3,-3,0,-2
1461661455315758,-1,-1,-4,-5,-2,-1,0,-1
1461661455315758,0,1,-3,-6,-4,-1,-2,-2
1461661455332743,-1,1,9,8,1,-1,-1,0
1461661455332743,3,-6,-23,-2,0,0,1,2
1461661455333745,1,-3,8,4,-1,-1,-1,-2
1461661455333745,-3,2,0,-9,-3,-1,-2,-2
1461661455345752,-3,-14,2,-3,0,0,1,0
1461661455345752,0,4,3,2,0,1,0,0
1461661455353756,1,2,-9,-4,-1,0,1,0
1461661455353756,1,-1,2,2,-2,-2,-2,0
1461661455367766,0,1,-6,-2,0,-1,-2,1
1461661455367766,-3,-6,1,2,-1,-3,0,-1
1461661455375771,-2,-2,-1,-4,-4,-1,-1,1
1461661455375771,-4,-2,5,-1,-1,-1,-1,-2
1461661455390783,1,-1,-3,1,-1,-2,-2,-3
1461661455390783,3,4,2,-3,-1,-2,-1,-4
1461661455391782,2,2,-1,-6,-3,-3,0,-2
1461661455391782,-1,-4,-1,12,3,-2,-1,-1
1461661455404866,-4,5,1,0,-3,-1,-1,0
1461661455404866,-2,0,1,2,1,0,0,-1
1461661455413871,-2,-2,-9,-3,-3,-1,-1,-1
1461661455413871,1,3,2,-1,-1,-2,0,-1
1461661455437883,-2,0,-5,-5,-4,-1,-3,0
1461661455437883,1,6,8,5,6,0,-2,2
1461661455437883,-1,-2,5,-1,0,-3,-1,1
1461661455437883,-1,-5,-9,-4,-2,-2,0,1
1461661455450870,0,4,8,1,-1,-2,-1,0
1461661455450870,1,-1,-4,1,-2,-1,0,-1
1461661455451870,0,-2,-8,4,3,-1,-2,-1
1461661455451870,1,4,5,1,0,-3,-1,-1
1461661455464926,2,0,-8,-4,-2,-2,-1,0
1461661455464926,-5,-17,-7,-10,-7,-1,-1,0
1461661455473931,2,0,4,1,0,1,0,0
1461661455473931,-3,-3,1,5,2,2,0,1
1461661455487942,2,2,-1,2,1,0,-1,1
1461661455487942,3,3,-4,-2,-1,-3,-2,2
1461661455496903,-2,-5,-3,-7,-2,-1,-2,1
1461661455496903,2,1,-6,0,-2,-1,-2,-1
1461661455509903,-3,-12,-13,-4,-2,-2,-1,-1
1461661455509903,0,6,11,-6,-5,-1,-1,0
1461661455518953,-2,0,8,19,7,0,2,0
1461661455518953,1,7,3,-4,-2,-3,-2,0
1461661455524969,-2,-3,-3,-2,0,1,-1,-2
1461661455524969,0,-3,-5,-1,-2,0,-1,-1
1461661455534917,3,3,0,-2,-2,-1,-1,0
1461661455534917,-5,-5,0,-5,-2,-3,0,-2
1461661455547938,-2,-4,-7,-6,-3,-2,-1,-2
1461661455547938,-2,-2,4,4,-2,-1,-1,-3
1461661455556952,0,1,-1,0,-2,-1,0,-2
1461661455556952,-1,-5,-3,-2,0,-1,-2,-2
1461661455578960,-1,-3,1,-7,-5,-2,-2,-1
1461661455578960,-2,1,-11,-3,0,0,-1,-2
1461661455580961,-1,-2,-2,-4,0,-1,-2,-1
1461661455580961,-1,2,6,4,-1,0,-2,-2
1461661455585011,0,2,4,-11,-2,-1,0,-2
1461661455585011,-3,-2,3,14,6,3,0,1
1461661455601975,-3,3,-9,-3,-1,0,0,-2
1461661455601975,-8,-19,-6,-3,-3,-1,-4,-3
1461661455608027,-1,0,2,-6,-2,-3,-3,-1
1461661455608027,-1,1,-1,9,2,-1,1,-2
1461661455616978,-1,-1,-3,-3,-2,0,-1,-1
1461661455616978,-1,2,-4,-3,1,-1,-1,-2
1461661455629996,-3,0,-8,3,-1,-1,-2,-1
1461661455629996,-3,-3,4,-1,-2,0,-2,-2
1461661455639032,4,5,-1,-6,1,0,0,1
1461661455639032,-2,0,1,-3,-4,-1,0,-1
1461661455654060,2,-3,-2,9,1,-1,-1,1
1461661455654060,1,-1,-1,-7,-4,-1,0,2
1461661455656061,-5,-8,-7,-7,-4,-3,-2,-2
1461661455656061,0,7,12,6,4,-2,-2,-2
1461661455668029,-5,-5,-2,-7,-4,-2,-1,-4
1461661455668029,2,0,0,3,0,-1,0,-1
1461661455677120,2,4,5,-3,-3,-1,-3,1
1461661455677120,2,-6,-14,-10,-4,-3,-3,0
1461661455690146,0,4,2,8,2,-1,-2,2
1461661455690146,0,-2,-7,-12,-3,-1,-2,-2
1461661455699125,1,-8,-5,-3,-2,-1,-1,-3
1461661455699125,-1,3,-3,2,-2,-4,-1,-4
1461661455705139,3,4,8,-5,1,-1,2,1
1461661455705139,-2,-5,0,-1,1,-1,-2,0
1461661455714134,0,1,-5,-3,-1,-1,-2,-1
1461661455714134,-2,-8,-8,4,-1,-4,-3,-3
1461661455728145,0,2,3,10,5,2,-1,-1
1461661455728145,0,1,-1,-6,1,0,0,0
1461661455744156,-5,-7,-1,1,1,-1,-2,0
1461661455744156,-2,-1,5,-10,-6,0,0,-2
1461661455750171,0,-4,10,3,-2,0,-2,-2
1461661455750171,5,3,6,2,-1,-1,0,-1
1461661455759164,-2,-6,-16,-2,-1,-3,-1,-3
1461661455759164,-5,-2,-8,-5,0,-1,-1,0
1461661455774215,2,6,-5,-2,-3,-6,-2,2
1461661455774215,-1,-1,5,-1,1,-1,0,3
1461661455776180,-1,-3,2,4,0,0,0,-2
1461661455776180,-2,-2,-4,-4,-3,-1,-1,-6
1461661455788221,-2,-4,-1,-6,-1,0,0,-3
1461661455788221,0,3,1,10,-1,-1,-1,0
1461661455797193,1,7,4,1,-1,-1,0,1
1461661455797193,1,5,7,-2,-4,0,-2,-1
1461661455810209,-7,-10,-9,-5,-2,-3,-2,-2
1461661455810209,-1,-1,-3,3,1,-2,-3,0
1461661455819209,-1,-2,-3,2,2,1,1,0
1461661455819209,0,3,14,-2,-3,0,-2,-1
1461661455825270,1,-1,-4,-15,-9,1,-1,-2
1461661455825270,-1,-10,-5,9,9,1,0,-1
1461661455835234,0,8,5,5,0,-3,-2,-2
1461661455835234,0,1,-9,0,2,-1,2,3
1461661455848240,-1,2,8,1,0,-2,0,-1
1461661455848240,-2,7,3,-23,-8,-4,-1,-1
1461661455864242,-3,-14,-13,22,6,1,0,-1
1461661455864242,-12,-17,-8,4,-1,-1,-1,-4
1461661455870389,-1,3,-2,7,2,-1,0,-1
1461661455870389,-1,-5,-3,1,1,1,-1,-2
1461661455887358,3,8,5,-14,-6,-3,-2,1
1461661455887358,-1,-4,-12,-4,-3,-2,-3,1
1461661455888361,-4,-2,5,2,1,-1,-1,1
1461661455888361,-4,5,-1,-4,-1,-1,-2,-5
1461661455894349,0,0,7,-8,-4,1,1,-2
1461661455894349,-3,-2,-10,2,2,0,-3,-2
1461661455907386,2,0,-10,-45,-20,-3,-2,1
1461661455907386,-4,-9,1,23,9,0,-1,-3
1461661455917365,1,0,12,22,9,0,0,0
1461661455917365,0,-4,4,0,0,1,-1,-3
1461661455930390,2,11,-2,13,2,-1,-2,-3
1461661455930390,5,10,-2,-14,-12,-3,0,0
1461661455940397,-8,-5,-4,-23,0,2,-1,-4
1461661455940397,2,18,10,11,2,-2,-3,-2
1461661455945400,-1,-20,-5,-9,-5,1,-2,0
1461661455945400,-1,3,5,-2,-2,1,7,2
1461661455954406,-14,-10,-3,1,-4,4,17,-4
1461661455954406,5,-5,-6,-6,1,-2,-7,10
1461661455967459,1,2,-7,9,2,-9,-13,-1
1461661455967459,-7,-3,-5,-14,-8,-10,-16,-5
1461661455976420,6,18,9,14,6,2,8,3
1461661455976420,8,0,-5,-28,-12,0,9,5
1461661455990445,-7,0,4,7,-9,-3,-4,-5
1461661455990445,1,-12,-7,-2,-4,-4,-5,-2
1461661456005457,-2,5,2,-33,-16,0,14,-1
1461661456005457,2,-3,3,30,24,6,-5,2
1461661456012450,6,-10,-33,-5,0,-7,-17,-2
1461661456012450,11,20,20,36,10,4,-1,3
1461661456021440,-6,-5,7,-20,-6,-3,-4,-2
1461661456021440,-17,-28,8,-1,-11,-3,14,-9
1461661456027443,-7,-18,-3,12,14,10,3,6
1461661456027443,6,4,-18,-1,10,7,9,7
1461661456036474,5,-8,-6,13,3,3,7,4
1461661456036474,11,12,-3,-16,-10,3,11,5
1461661456050459,-1,-1,-2,-13,-7,-3,-16,-11
1461661456050459,-8,-10,-5,-14,-15,-20,-19,-4
1461661456059465,0,-2,8,-6,-7,2,-5,3
1461661456059465,-14,-22,-12,-5,8,6,25,-2
1461661456072538,25,29,-4,-5,-9,-17,-25,11
1461661456072538,-3,2,-7,-45,-23,-25,-50,-19
1461661456081481,7,-12,26,-28,-23,-23,-13,-8
1461661456081481,-9,6,-5,52,29,10,4,5
1461661456087485,-17,-45,-8,-37,-6,7,34,6
1461661456087485,13,33,26,83,20,29,36,10
1461661456096491,-29,-112,-16,46,36,12,-8,-1
1461661456096491,-2,-4,-4,-23,-7,12,18,-2
1461661456110521,4,-24,30,84,57,52,40,14
1461661456110521,15,-42,-13,-61,-31,-8,12,10
1461661456119513,-10,-21,-15,-24,-5,-6,-10,-10
1461661456119513,7,-14,8,-26,-22,-32,-65,-16
1461661456132516,-6,-48,-11,-16,-17,-30,34,2
1461661456132516,21,-10,2,-6,-4,7,-24,13
1461661456141541,-17,24,-16,21,7,-7,-35,-6
1461661456141541,-3,-9,-8,-21,-21,-31,-8,3
1461661456155594,-14,20,-3,-68,-39,-30,-62,-32
1461661456155594,5,-2,-14,-44,-7,3,70,10
1461661456179654,13,46,39,90,47,19,-21,12
1461661456179654,9,56,-8,-80,-36,-17,-29,-26
1461661456180655,-3,39,33,68,19,26,56,14
1461661456180655,-31,29,-29,-51,-11,3,-6,-1
1461661456182656,23,59,23,47,25,24,19,4
1461661456182656,-15,-37,-14,55,54,22,34,4
1461661456192655,-3,27,28,10,-11,3,50,6
1461661456192655,-15,-16,-5,-59,-7,-9,-78,-31
1461661456201675,-2,3,-32,-10,-39,-43,-27,-19
1461661456201675,21,0,35,25,9,22,23,9
1461661456207723,32,62,-8,23,9,16,6,30
1461661456207723,-7,-71,-19,37,19,8,5,9
1461661456216669,8,2,-12,-55,-31,-8,31,10
1461661456216669,-5,-23,-3,-37,-27,-40,-75,-48
1461661456230692,30,-42,7,-1,11,-12,-51,-29
1461661456230692,-7,-6,17,0,-2,1,21,-2
1461661456239700,19,-26,-1,-14,-7,7,23,12
1461661456239700,-44,-56,-32,-39,-14,21,80,22
1461661456252708,-1,-12,23,-23,1,36,21,4
1461661456252708,-43,-78,10,15,28,-9,-50,-31
1461661456261707,32,-38,24,37,7,-25,-21,7
1461661456261707,-10,-21,16,32,12,-1,25,12
1461661456267763,-20,64,-48,-60,-11,-2,-6,-3
1461661456267763,4,91,38,32,-1,-5,-17,-21
1461661456276712,23,62,2,10,22,11,-12,-3
1461661456276712,-21,86,-34,-31,-14,-16,-12,-18
1461661456290752,-53,-57,-6,-67,-27,2,21,7
1461661456290752,56,90,39,91,53,10,3,2
1461661456299756,23,101,-3,-100,-24,-7,16,20
1461661456299756,32,127,33,45,27,17,-11,9
1461661456312751,-38,44,-27,-72,-28,22,55,11
1461661456312751,-37,67,-33,-10,-12,-21,-46,-18
1461661456321742,17,84,25,22,-17,-37,-22,-12
1461661456321742,-10,77,-42,-69,-26,5,5,-7
1461661456327762,50,81,-8,84,33,-16,-17,9
1461661456327762,27,85,7,-29,-14,7,-29,4
1461661456336769,-59,-83,-25,-7,2,-6,-18,-17
1461661456336769,-4,-4,78,36,4,18,31,-1
1461661456358827,-37,-46,-22,-29,-1,12,-3,-17
1461661456358827,5,-18,-68,-63,-23,2,33,11
1461661456360772,-3,68,34,57,80,22,0,-1
1461661456360772,-10,31,-10,-82,-6,22,69,26
1461661456372838,44,22,15,47,35,-3,-37,-3
1461661456372838,-5,87,-66,-126,-100,-61,-60,18
1461661456381786,-44,117,-53,-48,-23,-9,-11,-59
1461661456381786,1,35,16,17,0,22,6,26
1461661456387848,-33,-51,-10,54,25,-25,-64,-34
1461661456387848,20,-128,19,1,-20,-33,24,-16
1461661456396794,-83,-128,-23,-9,-23,18,84,21
1461661456396794,-4,-128,0,-10,0,12,-70,6
1461661456410835,50,-94,2,-85,-62,-23,-36,-50
1461661456410835,50,-93,37,52,60,19,-11,-7
1461661456419843,-46,-128,-9,12,4,-6,27,32
1461661456419843,75,-128,53,4,-13,11,79,21
1461661456432839,-60,35,-21,40,23,7,-48,-21
1461661456432839,41,37,-29,-29,0,5,26,-13
1461661456441846,66,-42,13,-128,-60,0,-20,16
1461661456441846,-9,-101,-34,95,93,-6,8,22
1461661456447849,-30,60,17,47,25,20,22,31
1461661456447849,17,-109,-28,-40,-4,5,-44,-33
1461661456456839,27,-88,6,-46,-50,-40,28,17
1461661456456839,11,-112,-2,-96,-108,4,-20,-17
1461661456469847,109,53,-22,103,67,-14,-25,27
1461661456469847,-94,127,43,-20,12,0,34,35
1461661456478865,10,59,-28,-55,-4,23,7,14
1461661456478865,-84,-75,-32,-32,-19,-41,-44,-54
1461661456493873,92,63,43,-42,-4,56,76,38
1461661456493873,60,71,-18,11,-9,13,23,13
1461661456495867,-48,46,29,2,-14,-12,-11,-12
1461661456495867,-91,-24,-22,-48,-21,-29,-64,-43
1461661456507937,-22,53,49,48,22,-21,-36,-53
1461661456507937,-29,61,38,-50,4,48,66,30
1461661456516910,118,10,61,127,75,-11,6,37
1461661456516910,127,-18,-53,-23,12,-19,1,42
1461661456529919,-67,28,38,-77,-31,18,102,51
1461661456529919,63,63,54,62,-19,-5,-84,-35
1461661456538926,-26,25,-55,-55,-3,-20,-65,-43
1461661456538926,-86,-23,-43,20,23,19,-31,-14
1461661456552922,65,35,53,-30,-27,-41,14,4
1461661456552922,-128,61,-27,-16,9,10,48,46
1461661456561916,-29,-2,-19,31,-10,10,-26,-24
1461661456561916,86,-12,24,29,9,-30,-23,-10
1461661456567977,94,36,7,-42,-16,22,15,9
1461661456567977,-45,49,-12,-23,-10,2,47,-7
1461661456576940,-105,-3,46,3,-31,-10,-35,-14
1461661456576940,-55,2,-63,-17,5,-14,-8,-2
1461661456589962,-19,35,-68,10,-10,5,-14,-2
1461661456589962,78,37,11,124,58,52,34,-19
1461661456598941,-40,-10,7,-27,-49,-40,-55,-33
1461661456598941,69,9,75,127,78,17,24,42
1461661456612947,-128,29,-37,-28,-10,-8,-42,-41
1461661456612947,-51,33,-29,-54,-25,-12,34,-17
1461661456621955,114,-7,-24,-41,-15,32,22,20
1461661456621955,-77,9,18,-48,-33,-41,-81,-15
1461661456636966,7,21,-27,-18,-7,-57,-55,-13
1461661456636966,-36,30,25,29,7,34,-5,-13
1461661456637966,58,-6,-3,1,28,64,48,11
1461661456637966,62,11,22,-2,1,23,39,12
1461661456649975,-23,22,-28,-12,-9,-1,9,-3
1461661456649975,-3,30,-45,-96,-61,-46,-20,-9
1461661456658981,-26,3,27,86,52,13,9,7
1461661456658981,47,10,22,-11,4,3,5,1
1461661456681997,11,24,-41,-27,-14,-15,-9,-4
1461661456681997,-7,26,-10,-28,25,-7,-1,1
1461661456682997,-29,-9,27,17,-6,-14,-5,6
1461661456682997,-77,12,-31,-12,-24,-5,14,-23
1461661456688002,2,18,17,-10,0,18,-33,-13
1461661456688002,33,23,-4,5,-12,-39,19,48
1461661456697025,79,-5,-43,-41,-4,-30,-48,8
1461661456697025,16,19,11,15,9,-47,-50,-20
1461661456710023,-97,21,14,-13,-22,89,77,1
1461661456710023,22,20,8,27,8,-9,-20,-23
1461661456719046,-8,9,6,12,14,49,17,-2
1461661456719046,77,12,-6,-14,-14,-2,18,23
1461661456733050,48,-23,-19,-63,-35,-49,-13,10
1461661456733050,24,-24,70,92,41,15,14,13
1461661456742051,1,-10,-33,-66,-5,-4,17,-2
1461661456742051,-31,31,-25,31,34,8,-10,-15
1461661456748056,12,-6,-10,8,14,-23,-6,4
1461661456748056,-14,13,35,25,9,5,-10,-17
1461661456757062,-42,94,-22,-31,-22,-21,-14,-29
1461661456757062,62,31,15,-33,-33,12,11,13
1461661456779067,-1,-23,9,35,23,2,19,37
1461661456779067,-65,-128,-11,-1,2,9,-25,-9
1461661456781068,6,-67,-11,-14,-17,-4,47,14
1461661456781068,-20,2,-28,-17,-9,-1,-47,-15
1461661456793090,63,-128,34,20,0,-56,-34,-12
1461661456793090,-15,-128,-14,-6,0,58,7,9
1461661456802094,15,-107,-5,3,5,-1,3,2
1461661456802094,-22,60,5,-18,-9,24,25,-6
1461661456808148,13,36,2,0,-7,0,8,9
1461661456808148,16,58,33,14,2,-21,-7,-5
1461661456817095,-17,127,-23,10,21,10,0,-7
1461661456817095,-3,127,29,1,-3,4,10,-1
1461661456830107,-13,73,-33,19,20,-1,-17,-14
1461661456830107,1,38,-7,-30,0,-8,4,-5
1461661456839115,-10,105,5,7,-6,-7,-6,-8
1461661456839115,-8,127,6,-4,-15,-30,-7,-9
1461661456853133,-3,-98,10,-8,-9,-21,-19,-22
1461661456853133,27,19,-6,7,-5,27,22,8
1461661456862138,18,52,8,-8,-2,-32,-7,17
1461661456862138,-91,11,-29,-5,-1,2,-9,-18
1461661456868143,15,-107,17,7,4,53,16,18
1461661456868143,19,-65,-28,-6,0,8,22,22
1461661456877149,10,-22,3,3,-4,-14,-8,-4
1461661456877149,12,70,7,-10,-13,16,-16,-11
1461661456890158,3,-17,2,-8,-15,-23,-12,-2
1461661456890158,9,-128,-4,-15,-6,-30,-19,-1
1461661456899165,8,-49,37,38,17,18,7,4
1461661456899165,-1,-110,-23,12,20,-1,11,8
1461661456913185,-16,-19,-2,-14,-1,-3,-7,-9
1461661456913185,5,85,-20,-23,-14,-10,-2,-1
1461661456928172,-12,126,-7,-10,-7,1,-2,-10
1461661456928172,6,127,20,7,1,-38,-4,-2
1461661456937203,-2,127,-9,-10,-4,14,-6,-7
1461661456937203,-20,127,6,2,-5,-18,-4,-6
1461661456938179,27,97,8,2,-3,-5,-5,7
1461661456938179,17,-32,4,0,0,-1,-4,9
1461661456950246,-6,52,-7,-1,5,35,10,13
1461661456950246,-8,41,-3,13,5,54,20,4
1461661456959195,2,21,-12,-2,2,12,-1,-9
1461661456959195,-1,-42,-4,-21,-11,-2,2,3
1461661456973261,-6,-32,-4,-31,-25,-32,-14,-2
1461661456973261,2,-58,18,78,59,-3,-6,3
1461661456982221,6,-30,1,-5,-9,8,6,3
1461661456982221,-2,-7,13,8,23,13,7,5
1461661456996279,-19,-6,-36,2,1,-10,-3,-8
1461661456996279,6,-10,-2,-22,-15,-15,-6,-6
1461661456998223,-16,-113,-14,-9,-8,-9,-3,-10
1461661456998223,-2,-68,-10,-10,-10,-3,3,-5
1461661457010236,-6,-36,15,1,0,-3,-2,-6
1461661457010236,17,-50,-13,-8,-8,-6,1,2
1461661457019239,-1,38,7,4,3,10,2,1
1461661457019239,6,21,9,-4,-12,-29,-13,1
1461661457033245,5,26,16,13,14,40,12,5
1461661457033245,0,-6,-19,-13,-9,-10,3,16
1461661457042262,-6,-27,5,13,7,4,-12,-32
1461661457042262,-6,-53,-10,-6,-6,14,11,-7
1461661457056322,-8,-64,17,4,-1,-19,-7,-4
1461661457056322,1,-80,-3,10,4,-8,-6,-3
1461661457058262,-19,-76,6,-11,-1,5,3,-3
1461661457058262,-6,-49,-25,0,-7,-1,1,-10
1461661457070271,-15,-52,-15,-3,-2,-16,-3,-14
1461661457070271,-7,-20,16,-46,-30,-14,-6,-5
1461661457079281,-3,-4,-11,71,42,9,6,1
1461661457079281,-5,22,41,0,0,4,0,-5
1461661457092300,-2,56,11,-1,1,-5,1,7
1461661457092300,11,29,-5,-10,-3,-6,1,3
1461661457102311,-5,-7,-5,-31,-15,-9,-8,1
1461661457102311,3,24,-26,2,-1,-3,2,3
1461661457116316,9,4,-13,13,2,8,3,9
1461661457116316,8,15,-4,-8,0,-7,-9,1
1461661457118306,2,12,-3,-11,-6,0,3,3
1461661457118306,9,12,7,13,-1,-11,-8,7
1461661457130326,2,-19,1,-9,-3,-1,7,3
1461661457130326,3,-30,-2,12,6,20,7,4
1461661457139373,-5,-13,-3,-14,-5,-1,0,5
1461661457139373,-5,1,8,5,-3,11,4,-3
1461661457153415,-6,2,6,2,2,-18,-7,-4
1461661457153415,1,7,8,12,2,-7,-5,-5
1461661457162391,-5,23,5,-5,-2,3,-1,-2
1461661457162391,-2,19,-17,-14,-6,0,0,-2
1461661457176428,2,117,30,0,-3,-9,-3,1
1461661457176428,-7,23,-18,4,2,-3,-5,-1
1461661457178431,3,-5,12,-10,-4,-6,-2,2
1461661457178431,2,-55,-25,-3,2,14,7,0
1461661457190438,3,-77,2,14,2,-9,-5,3
1461661457190438,1,-40,12,-13,-13,-4,0,0
1461661457199445,1,-21,-3,10,9,1,-3,-2
1461661457199445,-3,-18,-12,-6,3,5,4,-2
1461661457212440,-2,-29,-8,0,1,9,4,-1
1461661457212440,0,-10,21,4,-5,-18,-5,-1
1461661457221446,-5,-38,6,-11,-8,-1,-2,-3
1461661457221446,-2,2,-14,0,-2,3,1,-1
1461661457237458,1,10,-1,7,2,0,-3,-4
1461661457237458,-3,2,-7,-8,1,1,-2,-5
1461661457238445,-3,10,-8,-6,-7,1,1,-4
1461661457238445,-1,35,2,-6,-4,0,-2,-3
1461661457250452,0,6,16,3,-5,-3,-1,0
1461661457250452,-1,19,-3,7,2,-4,-3,1
1461661457259458,-6,-4,-16,-10,-7,-4,0,-1
1461661457259458,-1,-6,-9,0,0,6,0,-1
1461661457272537,0,8,51,0,-2,3,0,0
1461661457272537,0,-12,-25,4,0,-8,1,1
1461661457281475,0,3,7,-7,-3,9,-4,0
1461661457281475,4,-16,2,-1,-4,-10,-6,0
1461661457296485,3,-1,-27,-3,5,19,8,0
1461661457296485,4,41,4,8,4,2,0,-1
1461661457298487,-2,14,0,-13,-5,-7,-2,-4
1461661457298487,0,-2,12,4,-2,-6,-3,0
1461661457310494,1,-26,9,7,0,-4,-3,0
1461661457310494,-5,-49,-15,-12,-3,-4,-2,1
1461661457319500,-8,-27,-24,-8,-8,-4,-2,-2
1461661457319500,-3,-10,-5,-2,-2,2,0,-2
1461661457332509,-1,-11,-6,16,5,-4,-1,-1
1461661457332509,-1,-8,15,1,2,6,-1,-2
1461661457341515,-1,1,7,2,-2,-3,-2,-2
1461661457341515,-2,3,-16,-13,-6,-1,-2,-1
1461661457358529,-2,4,5,-4,-1,-3,1,-1
1461661457358529,1,-4,-7,6,0,2,-1,0
1461661457359528,3,8,-6,1,0,0,-1,-1
1461661457359528,-6,5,8,1,1,0,1,-1
1461661457370537,-1,0,-25,-9,-4,-3,-1,2
1461661457370537,0,7,13,1,2,1,0,1
1461661457379542,0,5,-11,3,3,-2,-1,1
1461661457379542,2,16,21,2,1,2,-1,-4
1461661457392586,0,1,-8,-4,-2,-2,-3,0
1461661457392586,-1,-9,-3,-6,-2,0,-1,0
1461661457401573,-1,-1,-8,3,1,-1,-3,0
1461661457401573,1,8,1,2,0,-2,-1,-1
1461661457416598,2,11,9,-1,-3,-3,0,1
1461661457416598,1,6,7,-8,4,2,-1,2
1461661457418600,-4,-5,-3,14,3,-1,-1,-2
1461661457418600,0,4,-18,-14,-7,-4,0,-1
1461661457430595,-2,1,10,4,4,0,0,-1
1461661457430595,0,-1,-29,-11,1,2,1,1
1461661457439586,-5,3,10,-11,-6,-3,-3,-3
1461661457439586,1,1,9,19,9,3,0,0
1461661457452655,1,2,-10,-6,-5,-3,0,-4
1461661457452655,-4,-14,-17,4,-3,0,-2,-5
1461661457461616,-3,-4,-3,-14,-5,-2,-2,-4
1461661457461616,-3,6,18,-4,-6,-1,-4,-3
1461661457476627,-2,-4,-15,-3,0,-2,-1,0
1461661457476627,4,12,26,2,-1,-1,-2,-1
1461661457478631,-1,-2,-30,0,0,-3,1,1
1461661457478631,-5,-4,-8,-7,-3,-3,0,-2
1461661457490633,-1,-1,-9,-4,0,1,0,2
1461661457490633,-2,1,6,6,-1,-1,-2,0
1461661457499644,3,5,6,0,-1,0,-1,-2
1461661457499644,1,2,0,3,-1,-1,-2,-2
1461661457512652,-2,-1,2,-3,0,-2,-2,-1
1461661457512652,1,5,15,-1,-2,-2,1,0
1461661457521659,-1,4,2,10,3,0,-1,0
1461661457521659,-1,4,18,-10,-2,-2,-1,0
1461661457535668,-2,-6,-11,13,3,1,1,-2
1461661457535668,-1,-4,-15,-4,-4,-2,0,-1
1461661457550703,-2,6,1,-3,-2,-1,-2,-2
1461661457550703,0,5,1,7,4,4,1,2
1461661457551678,1,6,1,-7,-3,-1,1,1
1461661457551678,3,0,1,5,1,-3,-1,1
1461661457559671,2,-1,10,-6,-5,-1,0,0
1461661457559671,-1,-5,-10,2,-2,-3,-1,-2
1461661457572719,1,2,3,-2,-3,-2,-1,-4
1461661457572719,-3,-5,-8,2,-1,-1,-3,-2
1461661457581685,-3,2,-2,-7,-3,-1,-3,0
1461661457581685,-1,-1,-5,-1,-4,0,0,1
1461661457596708,1,-2,-7,-5,-2,0,-1,0
1461661457596708,-1,2,5,-6,-3,-1,-1,-3
1461661457598715,-3,3,8,0,0,1,-2,-3
1461661457598715,0,-12,-11,-2,-1,0,-1,1
1461661457610737,1,4,3,2,-1,1,-1,2
1461661457610737,-2,-5,-3,-7,-1,-2,0,0
1461661457619746,-3,-3,0,-5,-3,-3,-2,-3
1461661457619746,-4,-7,-16,2,0,-3,-1,-2
1461661457633724,-2,-4,-8,-12,-5,-2,-2,-2
1461661457633724,-1,1,-1,3,1,2,0,0
1461661457641834,-1,-3,1,11,8,0,0,-2
1461661457641834,0,5,10,1,-2,-3,-1,0
1461661457656848,-3,-11,-13,-8,-1,-1,-1,-1
1461661457656848,0,3,-7,2,-4,1,-2,-1
1461661457658847,-3,-4,-15,-20,-6,-2,-3,-3
1461661457658847,0,13,34,5,-2,1,-2,-2
1461661457669877,-3,-9,-19,-1,-1,0,0,-1
1461661457669877,-1,3,9,0,1,-2,0,-2
1461661457686866,-3,-7,-15,-6,-4,-1,-1,0
1461661457686866,-1,-3,-11,-2,2,-2,0,-2
1461661457692855,0,4,6,-3,-2,-1,-2,-2
1461661457692855,-1,3,11,5,5,2,-1,0
1461661457701873,-4,-7,-11,0,-2,-2,-2,-3
1461661457701873,1,2,9,1,-1,-1,0,-2
1461661457715883,0,1,-4,2,1,-1,-1,-1
1461661457715883,-3,-5,-3,-3,-2,-6,-2,-3
1461661457722887,-3,8,26,-2,-2,-1,-3,-2
1461661457722887,-1,0,0,10,5,1,0,1
1461661457729880,-6,-1,-4,-1,-1,1,1,-1
1461661457729880,1,4,0,2,1,2,1,0
1461661457746893,1,0,0,-8,-7,-3,-2,-1
1461661457746893,-4,-10,-20,-8,2,-1,0,-2
1461661457752914,0,0,6,2,0,-2,-3,-1
1461661457752914,-1,0,6,-1,2,1,-1,2
1461661457761915,-1,2,-1,4,2,0,-3,1
1461661457761915,-1,-6,-8,-8,-7,-2,-2,-2
1461661457775930,1,4,13,9,2,0,-1,0
1461661457775930,1,-10,-22,-6,-1,-2,-1,0
1461661457782918,-2,-1,-2,0,-2,-3,-1,0
1461661457782918,2,6,3,4,3,-1,-2,3
1461661457798929,1,2,-10,-6,-3,-3,0,1
1461661457798929,1,0,-6,5,0,0,0,-1
1461661457800930,0,3,16,1,-1,-2,0,-2
1461661457800930,-6,-9,-15,-8,-3,-2,-1,-4
1461661457812998,-1,-1,9,-4,-3,-1,0,-2
1461661457812998,-2,2,3,-5,-5,-2,-2,0
1461661457821961,1,-1,-7,14,6,1,-1,-2
1461661457821961,2,9,7,-5,-3,-1,-1,-1
1461661457836013,1,3,-3,-3,-4,-2,-1,-4
1461661457836013,-5,-5,4,-1,1,1,0,-4
1461661457842964,-6,-6,-23,-3,1,0,-1,-2
1461661457842964,-3,-2,2,-4,-2,-1,-1,0
1461661457849967,2,2,-3,1,3,1,0,0
1461661457849967,3,-1,2,-3,-5,-2,-1,-2
1461661457858974,-3,-8,-12,-5,-3,-3,-2,-2
1461661457858974,2,2,6,1,1,-1,-1,-1
1461661457872984,-2,-3,-16,-3,0,0,-2,1
1461661457872984,1,6,14,-2,3,-2,0,1
1461661457882008,-1,-5,-6,-8,-4,-2,-1,-1
1461661457882008,-1,-4,14,-2,-1,3,-1,-1
1461661457896017,4,8,29,15,3,1,0,-1
1461661457896017,-1,-9,-28,-9,-3,-1,-1,-3
1461661457903015,-3,-5,-12,-3,-2,-1,0,-1
1461661457903015,-3,-4,-9,-11,-5,-3,-1,-1
1461661457919073,-3,-3,10,10,2,-1,0,0
1461661457919073,0,10,26,3,3,3,0,2
1461661457921048,-6,-13,-14,3,0,-2,-2,-4
1461661457921048,2,1,-8,-13,-7,-3,-2,1
1461661457933036,1,0,-2,-6,-2,-2,0,1
1461661457933036,0,-3,2,3,0,-3,-1,-1
1461661457942045,0,4,1,-5,-2,-3,-1,-1
1461661457942045,1,2,1,5,2,0,0,2
1461661457956060,1,-1,-4,-9,-3,-2,0,0
1461661457956060,-1,-1,1,11,0,-1,-2,-1
1461661457963108,2,5,13,0,0,-2,0,0
1461661457963108,0,-1,-11,8,0,1,0,-1
1461661457979086,-2,-4,-3,-3,-4,-1,-2,0
1461661457979086,-2,-3,-3,-5,-2,1,0,-1
1461661457981067,2,5,13,8,1,1,-3,0
1461661457981067,-1,4,13,2,-1,0,0,0
1461661457993069,-2,-8,-28,-14,-5,-3,-2,-1
1461661457993069,-1,-1,-2,-3,-5,-2,0,1
1461661458002075,-3,2,8,9,4,2,0,0
1461661458002075,-1,2,5,-3,-1,-3,0,0
1461661458024089,-2,-4,5,0,-1,0,1,0
1461661458024089,1,-1,-10,-7,1,-2,-1,-1
1461661458026090,0,3,3,0,-3,-3,-1,-2
1461661458026090,2,-3,-5,1,0,-1,0,-1
1461661458039099,-1,0,5,-2,-1,-1,0,-2
1461661458039099,-2,-3,-5,2,-1,-1,-1,-3
1461661458041101,-1,-5,-2,-4,-1,-1,-1,0
1461661458041101,-1,1,11,0,-1,0,-2,0
1461661458053121,-2,-3,-5,2,0,-2,0,0
1461661458053121,1,4,7,-1,-1,-2,0,0
1461661458062131,-2,-1,3,1,-1,-4,-2,-1
1461661458062131,-3,-8,-19,0,-1,0,1,-2
1461661458076125,-2,-3,-21,-12,-4,1,-3,-1
1461661458076125,-5,-2,14,0,-2,0,-1,-3
1461661458083130,-2,1,15,10,1,0,-1,-4
1461661458083130,2,0,-2,-1,0,0,0,-1
1461661458098140,1,2,11,3,3,0,-2,-1
1461661458098140,0,1,-16,-7,-5,-3,-2,-1
1461661458107147,-5,-13,-19,-11,-4,-3,-3,-2
1461661458107147,-2,-4,2,5,4,-2,0,-2
1461661458113153,-1,-7,-8,-7,-3,-1,0,1
1461661458113153,2,0,-4,-2,0,-1,-2,0
1461661458122160,-1,-2,-5,-7,-5,-1,0,0
1461661458122160,-1,3,-3,-4,-2,-1,0,0
1461661458136227,0,3,9,11,5,0,-1,0
1461661458136227,1,0,2,2,1,-1,1,1
1461661458143173,-3,-9,-18,-9,-2,-1,-1,0
1461661458143173,-1,-7,-13,-2,-3,-1,0,-1
1461661458159245,2,3,2,1,0,3,1,-1
1461661458159245,0,1,-2,-3,-1,0,0,-1
1461661458161251,-2,1,8,1,2,-1,-2,-3
1461661458161251,0,4,7,-1,2,-2,0,1
1461661458173256,-1,2,5,9,2,1,1,1
1461661458173256,-1,-2,-7,-6,0,-1,0,-1
1461661458182200,0,2,4,8,3,2,-2,-1
1461661458182200,-3,-1,-4,-7,-3,-1,-3,-3
1461661458196209,-2,-2,7,6,-1,-1,0,0
1461661458196209,-3,-3,-24,-11,-5,-2,-2,-3
1461661458203275,-3,1,10,-5,0,-2,-2,-3
1461661458203275,1,3,3,6,2,0,-1,0
1461661458219285,0,0,-1,-7,1,0,0,2
1461661458219285,-1,-6,-11,6,-1,-2,1,-1
1461661458221291,0,-1,-9,-8,-3,-2,-1,0
1461661458221291,-1,-3,-4,3,1,-2,-2,0
1461661458233236,-4,2,8,-4,-1,-1,-3,-4
1461661458233236,-1,-1,7,4,2,-1,1,0
1461661458242276,-1,-4,-13,-2,-2,-3,0,-3
1461661458242276,-1,-1,-3,-5,-3,0,0,0
1461661458257272,1,2,-1,-2,-2,-1,0,-1
1461661458257272,2,4,10,1,2,1,-1,0
1461661458263314,-5,-4,-1,17,1,-2,-2,-3
1461661458263314,0,-1,12,-4,-5,0,-1,-1
1461661458279270,0,4,-4,1,2,0,0,1
1461661458279270,0,0,6,12,3,2,-1,1
1461661458281271,-2,-9,-19,-21,-7,-3,-1,-1
1461661458281271,-1,-5,-8,7,-2,-2,-1,-1
1461661458293284,1,-1,6,17,2,-1,0,0
1461661458293284,-1,3,3,-6,-2,-2,-1,1
1461661458302315,-1,3,0,-5,-2,-3,-1,-1
1461661458302315,-2,-2,-1,-3,-1,0,-1,-2
1461661458316325,2,1,-3,-8,-3,-3,0,0
1461661458316325,-4,-2,-4,-1,-1,-1,-1,-2
1461661458323303,1,0,1,2,-1,-1,0,-1
1461661458323303,1,3,2,-7,-3,0,-2,-2
1461661458339314,0,1,-2,2,-1,-1,-2,-3
1461661458339314,0,-4,2,2,-1,-2,-2,-2
1461661458341314,0,-2,-12,-4,0,2,-1,-1
1461661458341314,0,0,7,-1,-1,-1,0,0
1461661458353375,-1,-2,2,0,-2,0,0,0
1461661458353375,-3,-5,-5,3,-2,-2,0,0
1461661458361339,-3,1,14,1,0,-2,-2,-1
1461661458361339,0,-1,-19,-8,-2,-1,1,1
1461661458376352,-3,-8,-10,4,1,1,1,-1
1461661458376352,-1,0,3,-2,0,-1,0,-1
1461661458383372,0,4,7,3,-3,-3,-1,-2
1461661458383372,1,3,-3,-4,0,-1,-1,-1
1461661458406421,0,0,-1,-14,-5,-1,-1,-2
1461661458406421,0,-10,-21,-1,-3,-2,-2,-4
1461661458408366,-3,0,27,7,-1,-1,-1,-1
1461661458408366,-3,-3,-9,8,-1,-3,0,-1
1461661458413387,0,-1,-6,-1,1,0,-1,2
1461661458413387,-4,-2,5,-8,-6,-3,-3,-3
1461661458422371,0,-3,-9,-2,1,-1,0,-2
1461661458422371,1,2,4,-1,-2,-1,0,-2
1461661458436380,0,1,5,-5,-3,-1,-1,-1
1461661458436380,-1,-2,-11,-7,-4,-1,0,-2
1461661458443386,-1,-2,-8,-1,-1,-1,-1,-1
1461661458443386,0,2,6,4,1,0,-2,-2
1461661458459398,-1,-9,-13,-7,-2,-3,-2,-1
1461661458459398,-3,5,15,4,0,0,0,-1
1461661458461399,-5,-7,-15,-6,-7,-3,-2,-3
1461661458461399,1,0,-8,0,0,0,1,0
1461661458472424,-2,-3,10,-4,-1,0,-2,0
1461661458472424,0,-10,-20,1,0,-1,-1,1
1461661458481430,-4,4,11,5,4,-1,-2,-2
1461661458481430,-2,2,-6,-13,-3,-1,-1,-1
1461661458495423,0,6,15,13,1,-1,0,-3
1461661458495423,1,6,-7,2,4,0,0,0
1461661458504429,0,-1,1,-12,-6,-2,-2,-1
1461661458504429,-1,-4,3,1,-1,-1,0,-2
1461661458519586,0,2,8,10,2,-1,2,1
1461661458519586,-1,-5,-8,-1,-1,-3,0,-2
1461661458520529,-1,-3,-1,-2,-2,-3,-1,0
1461661458520529,1,4,21,7,4,0,-1,1
1461661458532539,0,-3,-12,-5,0,0,0,0
1461661458532539,-1,2,10,6,-1,-1,-2,-1
1461661458541581,-4,-4,-11,-8,-5,-1,-1,0
1461661458541581,0,-6,-14,-2,-1,0,-1,0
1461661458555617,-1,2,5,-3,0,-1,-1,-1
1461661458555617,-2,-3,1,-5,-3,0,-1,-1
1461661458564561,1,0,-12,-7,-5,-2,-1,-1
1461661458564561,-3,-2,10,-3,-5,-3,-2,-1
1461661458579571,-1,0,-4,9,4,-1,-1,0
1461661458579571,-1,-4,-6,-2,2,0,0,2
1461661458580571,-1,5,21,-1,0,-4,-4,-2
1461661458580571,1,-1,-4,-2,-2,-4,1,1
1461661458592579,-1,-3,-6,-5,-2,0,-1,-2
1461661458592579,1,1,1,-4,-5,-3,-2,-1
1461661458601602,-1,1,2,15,6,1,0,-1
1461661458601602,-3,-2,12,-15,-3,-1,0,0
1461661458615596,-4,-12,-31,10,-1,-1,1,-1
1461661458615596,-1,1,2,-9,-1,0,0,-1
1461661458624602,0,-4,-9,7,1,0,-2,-2
1461661458624602,-1,-3,1,3,2,-2,0,-1
1461661458639613,2,3,13,-5,0,0,-2,0
1461661458639613,-4,-6,-3,1,0,-2,-3,-2
1461661458640613,0,-1,-8,-7,-2,-3,0,-1
1461661458640613,1,2,-2,3,-1,-2,-1,-2
1461661458652623,2,3,5,-6,-3,-3,-1,-1
1461661458652623,-3,-4,0,2,-1,-2,-2,-3
1461661458661631,-2,-7,-5,-8,-3,-2,0,-1
1461661458661631,0,2,0,11,4,1,0,0
1461661458675658,0,2,5,-9,-6,-1,-1,1
1461661458675658,-5,-3,-1,3,1,-1,0,-3
1461661458684657,-1,-5,-27,9,3,-2,-2,0
1461661458684657,-1,0,11,2,0,0,-2,1
1461661458698667,1,3,9,2,2,0,0,1
1461661458698667,-1,-3,-13,-13,-4,-2,-1,-2
1461661458705671,-2,-1,9,15,5,2,0,-1
1461661458705671,1,-2,-13,2,-2,-1,-2,-3
1461661458712677,0,1,1,-6,-4,-2,-2,-1
1461661458712677,-2,-3,2,1,0,-2,0,0
1461661458721672,-2,-6,-16,-17,-8,-3,-1,-1
1461661458721672,1,0,0,8,6,1,-1,-1
1461661458735693,-2,2,10,5,1,1,-1,0
1461661458735693,-3,-3,-10,1,-2,-1,-1,-2
1461661458744701,-2,-3,0,-9,-1,0,-1,-1
1461661458744701,-2,2,8,-10,-7,-1,0,-1
1461661458758709,-5,-8,-31,-5,-1,-2,1,-4
1461661458758709,0,4,1,3,1,0,-1,2
1461661458765714,1,-3,14,3,-1,-3,-2,-3
1461661458765714,-4,-1,-2,-8,-1,2,-2,1
1461661458772721,2,2,4,3,2,-1,0,-1
1461661458772721,2,4,9,-11,-5,-1,0,-3
1461661458781714,2,-2,0,4,-10,-3,-3,-2
1461661458781714,1,-4,-21,19,16,5,2,0
1461661458795763,0,8,23,0,0,-1,-2,0
1461661458795763,-2,-1,0,1,1,1,-1,-1
1461661458804747,-7,-5,4,-23,-8,-4,-4,-4
1461661458804747,0,5,15,13,-1,-1,1,-1
1461661458826749,-1,-1,-35,-3,-3,-1,-3,-1
1461661458826749,3,5,11,10,10,3,0,1
1461661458828747,-1,4,4,-12,-3,-2,-2,1
1461661458828747,-2,-4,-9,-4,-3,-1,-1,-2
1461661458832762,-1,0,7,3,4,0,1,-3
1461661458832762,-5,-6,-4,-9,-8,-7,-3,-4
1461661458841770,0,-5,-5,4,0,-1,-1,-1
1461661458841770,-4,4,0,-6,0,1,0,1
1461661458855829,2,-1,-2,-4,-2,-1,-1,2
1461661458855829,-2,-2,3,-1,-3,-4,-4,0
1461661458864786,1,10,-1,-3,0,0,2,0
1461661458864786,1,-10,-4,-13,-10,-5,-2,-2
1461661458878794,-3,-2,4,-7,-4,2,0,-4
1461661458878794,1,-2,9,12,1,2,-6,-1
1461661458885787,2,-3,-11,23,14,0,0,4
1461661458885787,0,5,-1,-11,-4,-6,-6,-1
1461661458901857,-2,-1,16,10,-1,-3,-1,0
1461661458901857,2,6,-3,-7,0,1,3,-5
1461661458903851,-4,4,7,-1,-1,3,4,-3
1461661458903851,2,-3,-13,-10,-3,2,6,1
1461661458915826,1,-5,-10,-27,-11,-4,-4,2
1461661458915826,-1,0,5,21,6,-2,-4,-6
1461661458924877,-2,1,-1,6,-1,-3,-4,-2
1461661458924877,4,7,-1,5,2,3,2,1
1461661458938884,0,2,-10,-17,-4,3,4,4
1461661458938884,-1,1,-7,-16,-9,1,1,1
1461661458945847,-3,-8,-10,-12,-6,-4,0,0
1461661458945847,-2,2,8,19,8,6,7,2
1461661458961853,1,6,11,18,7,4,2,1
1461661458961853,-2,-9,-5,1,-1,-10,-22,-4
1461661458963843,7,-5,-17,-45,-17,-12,-19,2
1461661458963843,-5,-4,19,36,11,-3,-4,-8
1461661458975891,2,10,5,18,0,2,13,-1
1461661458975891,-6,-7,-14,-10,0,1,-4,-4
1461661458984857,-6,-2,-12,-22,-4,-3,0,-5
1461661458984857,2,-16,13,37,4,-2,-5,2
1461661458998926,2,8,-18,-26,-6,1,1,0
1461661458998926,-6,1,12,13,-4,-2,3,-5
1461661459005888,6,0,19,24,-3,1,3,3
1461661459005888,-12,-40,-29,-33,1,1,1,1
1461661459021914,-17,-22,4,18,7,3,7,-5
1461661459021914,1,4,-8,-1,1,12,23,4
1461661459022885,3,3,-7,-7,-3,1,-13,3
1461661459022885,3,0,7,-6,-9,-14,-28,-4
1461661459035902,9,20,-3,-8,-12,-30,-39,-2
1461661459035902,0,-1,-11,-50,-14,-9,-8,-17
1461661459043901,0,-1,13,53,23,25,44,3
1461661459043901,4,16,-16,-23,-7,7,10,8
1461661459058979,3,-4,0,-9,-12,-6,-3,3
1461661459058979,-10,-1,3,2,4,-7,-8,-5
1461661459064929,-5,3,4,-9,-5,-1,-3,-1
1461661459064929,-5,10,-5,13,1,5,-10,-9
1461661459081956,10,-7,7,14,23,4,-13,-5
1461661459081956,-31,-62,-8,6,1,1,14,0
1461661459082935,-7,-1,19,31,-2,0,20,-1
1461661459082935,11,14,6,6,14,5,-2,13
1461661459095965,-16,-11,-19,-5,-6,11,26,-6
1461661459095965,4,-6,14,-4,6,14,17,3
1461661459103957,-14,9,-9,-15,-13,-6,-38,-12
1461661459103957,0,-17,-6,8,3,-16,-19,-5
1461661459126018,3,-29,2,8,0,-13,-9,-1
1461661459126018,8,8,3,-12,-9,-15,-26,-7
1461661459143970,-15,-10,-7,-3,-6,2,43,-1
1461661459143970,0,12,-1,-30,-12,9,11,1
1461661459144972,12,24,-18,-47,-26,-4,-5,8
1461661459144972,8,-5,-4,31,38,8,-22,-1
1461661459148031,5,-18,19,19,6,-10,-21,-7
1461661459148031,7,-16,-5,21,7,8,25,8
1461661459155036,-15,-73,-17,-39,-15,-2,31,2
1461661459155036,-2,18,-22,-42,-22,-1,-14,-6
1461661459163995,8,-6,30,2,10,2,29,9
1461661459163995,-5,-84,-25,-20,-24,-5,-2,13
1461661459179007,-24,-25,-14,26,7,-5,-15,-26
1461661459179007,11,-26,8,34,3,-14,-12,9
1461661459185011,6,36,-17,-54,-1,-9,-50,-16
1461661459185011,2,33,17,-18,-12,-7,-1,-9
1461661459202022,2,-8,7,6,12,35,56,15
1461661459202022,9,-6,-6,-17,-12,17,43,32
1461661459203041,8,38,-8,2,-6,-7,-18,10
1461661459203041,-1,38,6,-35,-13,-5,-14,-11
1461661459216120,24,14,6,7,-7,-19,-80,-34
1461661459216120,-19,37,13,69,31,-11,-5,-12
1461661459224105,4,-6,-17,-39,-17,-26,-13,6
1461661459224105,-7,14,-8,-13,-7,-2,20,-5
1461661459239115,-3,60,16,4,11,11,24,12
1461661459239115,-18,-45,-23,-40,-13,29,63,4
1461661459245120,-6,0,36,93,28,19,-21,-8
1461661459245120,0,75,-26,-1,12,-16,-29,-8
1461661459262124,9,-13,54,114,49,15,26,15
1461661459262124,18,24,-7,-13,1,1,12,9
1461661459263126,0,13,-21,-68,0,26,-8,3
1461661459263126,-25,-86,-24,58,-10,-11,-25,-22
1461661459275150,20,-1,-19,-26,13,-25,-25,23
1461661459275150,4,4,0,-15,-22,-26,-22,4
1461661459284146,14,9,4,-44,-11,9,41,3
1461661459284146,-5,-18,-1,-6,0,36,30,-14
1461661459298165,-15,14,-22,-39,-16,-15,-56,-7
1461661459298165,15,-24,11,8,-16,-28,-27,-7
1461661459305171,-10,-65,-25,-64,-26,0,3,-10
1461661459305171,23,-31,50,37,21,11,2,18
1461661459322183,-17,-68,38,-42,-28,-16,-13,-26
1461661459322183,-7,-68,-55,46,44,6,8,-10
1461661459324186,-4,-116,1,-19,-12,11,73,12
1461661459324186,10,-39,-28,11,18,7,-1,17
1461661459335192,-12,-34,-14,-38,-25,8,-4,10
1461661459335192,-1,70,76,60,12,-7,-86,-38
1461661459344183,23,51,-12,39,19,-10,5,2
1461661459344183,-33,10,-32,-38,-5,-14,39,5
1461661459359203,-20,126,-6,-16,-13,-4,12,10
1461661459359203,11,120,-14,-128,-90,-1,23,-10
1461661459365225,-22,115,50,127,77,28,-50,1
1461661459365225,23,84,3,-21,0,-35,-46,-10
1461661459382212,-8,-4,-42,13,25,-1,7,-1
1461661459382212,-35,92,29,4,16,52,95,26
1461661459383211,-17,29,-21,-26,-26,4,-33,-19
1461661459383211,17,127,33,-58,-43,-54,-61,-11
1461661459395226,12,126,-15,-16,-12,-45,-67,-18
1461661459395226,1,87,-6,6,1,11,45,2
1461661459404240,-14,39,1,-104,-13,17,8,-2
1461661459404240,-23,-82,13,103,30,31,47,11
1461661459418250,22,-128,18,-23,-23,2,26,7
1461661459418250,-17,-128,25,-82,-54,-26,-35,2
1461661459425255,31,-115,-43,30,37,17,80,5
1461661459425255,27,-128,-22,-78,-16,9,-20,-4
1461661459442252,-49,-115,33,4,-29,-24,-19,-18
1461661459442252,38,-128,-33,58,42,10,-18,22
1461661459443251,-23,-66,23,-89,-49,-27,-23,-9
1461661459443251,-2,-11,17,112,28,18,72,8
1461661459455299,48,6,-53,-104,-22,7,-15,7
1461661459455299,-23,-109,13,48,14,0,6,-4
1461661459464270,-6,-27,-1,81,49,3,-27,-12
1461661459464270,18,79,8,28,24,-3,-15,-1
1461661459478289,30,54,-8,11,6,22,24,35
1461661459478289,-8,-89,3,-56,-20,6,12,-3
1461661459485296,-5,-6,-3,-7,-14,-42,-72,-37
1461661459485296,15,60,5,-67,-16,14,34,5
1461661459502296,-25,64,4,63,33,23,55,-7
1461661459502296,8,-67,6,-66,-36,20,-56,30
1461661459503295,-26,-8,92,-8,-1,-25,6,-18
1461661459503295,0,58,-78,-16,-1,-55,-89,-15
1461661459515332,-8,32,-57,-82,-39,-1,61,-1
1461661459515332,35,-51,65,109,76,46,8,21
1461661459524331,-31,2,-54,45,-9,-34,-63,-8
1461661459524331,-37,26,17,-38,-16,-26,-44,-22
1461661459538342,8,-36,-26,-52,-64,-1,41,-2
1461661459538342,-8,-46,6,56,56,55,56,-2
1461661459554330,-6,-1,-30,-15,25,-13,-37,6
1461661459554330,25,39,45,-42,9,-15,-21,-8
1461661459561352,-3,-9,-50,-28,1,14,-29,10
1461661459561352,-16,-32,-7,-54,-50,-58,8,-17
1461661459563337,35,-7,0,19,1,29,9,17
1461661459563337,46,46,-34,-32,-15,21,59,13
1461661459575405,-60,103,52,-93,-8,52,-39,-24
1461661459575405,-33,-15,-37,56,3,-84,-72,-16
1461661459584359,18,31,37,-108,-40,-27,31,20
1461661459584359,-83,23,8,67,48,56,26,3
1461661459598362,41,86,45,71,20,-23,-3,14
1461661459598362,21,3,2,65,51,24,-7,4
1461661459607369,-53,2,-67,20,-28,-24,5,-16
1461661459607369,35,20,28,-128,-58,15,47,21
1461661459621394,-53,64,-10,105,38,40,-9,-36
1461661459621394,51,14,-49,28,53,-32,-50,4
1461661459628383,48,4,-3,-86,-27,-23,-21,13
1461661459628383,-33,24,16,-15,0,38,24,-6
1461661459635404,-107,58,-13,-24,4,-23,11,-14
1461661459635404,35,9,6,-55,-75,-55,-51,2
1461661459644394,111,29,16,47,11,30,-12,8
1461661459644394,-24,30,-5,-41,-31,-16,28,-2
1461661459658462,66,35,-22,45,-3,-26,-47,20
1461661459658462,-14,6,-3,-43,-9,0,-10,-34
1461661459665410,-87,28,40,11,19,2,15,-18
1461661459665410,29,32,17,123,58,32,-1,8
1461661459689455,79,33,18,-51,-26,4,40,22
1461661459689455,-69,12,-27,-80,-63,-10,17,1
1461661459691434,23,24,75,111,90,48,19,11
1461661459691434,-23,26,-45,-36,-22,-22,-9,-10
1461661459695433,-35,18,22,-39,-46,32,91,25
1461661459695433,22,17,-22,58,82,55,-89,-29
1461661459704437,36,33,-34,-128,-88,-94,-56,6
1461661459704437,-10,22,25,-68,-6,-16,-29,-7
1461661459718448,31,-2,5,-51,9,21,21,9
1461661459718448,-43,15,-19,-65,-38,-13,37,-14
1461661459727453,-83,25,-29,18,-15,9,14,11
1461661459727453,120,24,-4,55,25,-17,-45,-4
1461661459741475,29,14,28,31,12,10,-12,14
1461661459741475,-66,14,-15,-47,-25,-6,17,-29
1461661459747479,-18,28,-11,44,20,14,-2,-15
1461661459747479,-86,26,-15,-128,-95,-37,-16,-19
1461661459763491,-3,16,61,95,78,0,-17,-22
1461661459763491,54,14,8,64,59,37,42,33
1461661459771496,57,34,-46,-55,-51,-18,4,3
1461661459771496,-12,22,19,115,69,35,21,15
1461661459777500,1,10,-11,-80,-29,-11,15,2
1461661459777500,-30,17,20,13,-5,-11,-28,-14
1461661459794502,37,30,-23,-41,-21,15,29,15
1461661459794502,24,22,-27,-19,2,-3,29,4
1461661459801532,25,-3,-9,51,5,-23,-92,3
1461661459801532,-39,16,16,-52,-37,-52,-53,-17
1461661459807549,12,26,1,-3,10,46,13,-3
1461661459807549,23,21,9,11,-4,37,-6,-10
1461661459824561,35,15,13,19,9,-16,21,-3
1461661459824561,-19,15,-2,-28,-24,4,41,9
1461661459825522,-1,38,5,-1,-4,-1,-2,-7
1461661459825522,-36,22,-14,-43,-36,-43,-36,-10
1461661459837589,-36,8,-2,-13,6,-5,-17,-5
1461661459837589,16,16,-10,26,30,5,8,10
1461661459863551,-15,28,-20,87,62,17,25,18
1461661459863551,5,22,15,-57,-25,-15,-13,1
1461661459864551,-14,50,-14,7,2,3,1,-3
1461661459864551,27,18,47,34,-6,2,13,-2
1461661459867581,-9,17,5,-30,-5,-5,7,11
1461661459867581,59,22,-24,1,-4,15,79,47
1461661459884583,11,-29,-22,-15,2,-3,-76,-6
1461661459884583,-50,17,7,-1,22,-8,19,-15
1461661459885569,59,-108,1,-20,-22,-28,-45,-10
1461661459885569,-19,-128,8,19,6,-51,-49,-13
1461661459897593,16,-128,22,32,23,93,76,9
1461661459897593,27,70,-15,-44,-29,18,6,2
1461661459906583,-32,62,10,8,3,29,28,-15
1461661459906583,-23,53,-1,5,-3,-18,-13,-10
1461661459920601,6,58,-14,-25,-32,-61,-18,-8
1461661459920601,-1,127,-9,-77,-35,-8,-11,-2
1461661459927608,-18,127,0,4,19,9,17,3
1461661459927608,2,-4,31,88,67,15,-12,4
1461661459944647,-31,-128,-1,-5,0,-29,-17,-18
1461661459944647,18,-34,-38,-94,-35,-7,4,2
1461661459945608,-15,-50,21,66,7,-14,-9,-2
1461661459945608,-7,43,14,-18,-17,14,3,-9
1461661459966635,2,104,20,33,11,9,0,4
1461661459966635,-22,127,-41,-36,-12,11,53,50
1461661459968636,5,52,0,-23,4,-21,-24,-14
1461661459968636,28,17,-41,-13,-20,-11,-87,-34
1461661459981637,-7,-42,14,2,-3,-10,-10,-11
1461661459981637,-22,-71,9,23,5,26,12,1
1461661459987666,-30,-128,-14,-18,-17,-25,16,4
1461661459987666,-10,-42,17,6,-2,50,35,5
1461661460004653,20,37,-24,-57,-19,-17,-7,-3
1461661460004653,31,85,14,60,11,-3,-6,-1
1461661460005652,-16,15,10,-24,-1,9,7,-2
1461661460005652,-18,-18,-2,-52,-15,-21,-7,-6
1461661460017675,0,13,-13,38,34,-3,4,4
1461661460017675,7,32,14,11,1,-12,-11,-6
1461661460026665,-9,35,9,-10,-15,-5,-8,-4
1461661460026665,-12,-51,-6,-28,-17,0,7,2
1461661460040690,-8,-3,-1,-4,6,-6,4,-2
1461661460040690,22,64,-5,17,6,1,-12,-3
1461661460049682,-2,115,-19,-27,-6,19,2,1
1461661460049682,2,97,3,6,-2,-11,8,15
1461661460064699,-11,109,20,24,7,8,6,0
1461661460064699,-1,80,-6,-1,8,19,-14,-8
1461661460065694,-14,59,-18,-14,-14,-13,-4,0
1461661460065694,-21,21,-1,13,3,3,-3,-6
1461661460077713,-8,-47,0,2,-6,-15,-3,-12
1461661460077713,23,-57,18,-2,-6,-10,5,-1
1461661460086722,6,-94,12,16,15,37,9,4
1461661460086722,3,-128,-7,-1,2,-5,9,2
1461661460100777,-5,-112,-24,-85,-32,-14,-15,-5
1461661460100777,6,-68,34,53,23,5,1,-1
1461661460107878,-10,-109,-45,-5,4,0,4,0
1461661460107878,2,-37,8,26,9,-13,-1,3
1461661460123859,1,-24,7,-20,-13,-9,-4,-1
1461661460123859,-17,-33,-23,-20,-1,2,-6,-10
1461661460126834,7,-17,22,14,-3,-11,-5,0
1461661460126834,2,-11,3,-18,-8,-6,-6,3
1461661460137842,-6,-35,-20,21,13,16,9,-1
1461661460137842,3,-26,2,-4,-6,6,1,-6
1461661460146876,1,-11,15,0,0,19,12,2
1461661460146876,-3,-10,2,0,3,12,9,0
1461661460160874,-6,-9,5,21,9,-4,-7,-4
1461661460160874,-5,27,-5,-3,1,-13,-7,-7
1461661460169881,-5,-6,-14,-18,-12,-10,-10,-7
1461661460169881,-13,-9,1,-6,-3,5,10,-4
1461661460183872,4,15,9,24,14,-1,-5,-1
1461661460183872,2,22,-3,-14,-9,-17,-11,-5
1461661460185874,-2,18,-1,-5,-9,3,3,-2
1461661460185874,-4,-3,-12,-1,-1,1,-2,1
1461661460197947,1,10,2,10,8,-2,0,2
1461661460197947,-4,-14,13,-7,1,-3,-2,-5
1461661460206909,5,-9,34,33,7,0,2,4
1461661460206909,-4,-24,-28,-5,0,-3,0,4
1461661460220919,4,7,-2,19,6,7,2,3
1461661460220919,-1,-2,-7,-21,-8,-9,-5,-1
1461661460227924,0,-9,-8,-10,-5,-3,0,0
1461661460227924,0,5,5,-1,-2,2,1,1
1461661460244945,-7,-13,-11,-12,-6,5,1,0
1461661460244945,5,36,4,2,-3,-5,-2,1
1461661460246919,2,24,0,-3,-2,-7,-3,1
1461661460246919,2,12,3,2,0,1,3,5
1461661460257926,-2,6,1,2,3,0,-1,2
1461661460257926,-1,-37,-9,3,-1,-16,-4,1
1461661460266933,1,-30,-19,-6,-1,18,6,2
1461661460266933,-4,-16,19,0,-1,-10,-4,3
1461661460280970,0,-8,6,9,5,8,4,0
1461661460280970,0,7,4,-3,-2,-6,-3,1
1461661460287975,1,10,-2,-8,-6,1,1,1
1461661460287975,-4,-17,-20,2,-2,5,-1,0
1461661460303973,1,5,6,-4,3,-2,-2,2
1461661460303973,1,1,-22,-17,-12,-6,-2,1
1461661460305961,-6,-1,3,-14,-4,-10,-4,-2
1461661460305961,4,9,9,28,8,8,1,0
1461661460326989,-1,2,52,-7,-4,-6,-2,-2
1461661460326989,-5,-17,-67,-1,1,0,-1,-4
1461661460327989,2,21,-10,-3,-5,-8,-2,0
1461661460327989,-1,97,-6,-14,-3,5,1,2
1461661460341023,-2,27,-6,3,0,-1,-2,-1
1461661460341023,-3,6,20,-5,-2,-1,-2,-3
1461661460348028,1,-6,6,1,0,-3,-1,-1
1461661460348028,0,-21,2,-1,0,1,1,-1
1461661460364024,4,-11,0,4,0,-2,-2,0
1461661460364024,-11,-69,-31,-7,-1,-8,-5,-3
1461661460366002,1,-41,-5,3,-1,-12,0,2
1461661460366002,-1,-47,12,-1,4,23,4,0
1461661460378034,-1,-33,-12,-1,-1,-3,1,1
1461661460378034,1,-19,26,4,1,3,-1,-3
1461661460387041,0,-22,-13,2,-1,-7,-3,-2
1461661460387041,0,-22,8,-2,-3,-9,-4,-2
1461661460409093,1,-16,-12,9,2,-1,-3,-3
1461661460409093,-6,1,9,-9,-7,0,-4,-4
1461661460411035,2,12,1,-18,2,2,0,0
1461661460411035,1,7,17,16,5,-1,0,-1
1461661460424066,-2,-7,-19,9,5,3,0,1
1461661460424066,-2,16,-11,-14,-6,-4,-2,-2
1461661460427045,-1,10,5,14,3,2,-1,-3
1461661460427045,-4,-15,-4,-10,-4,-3,0,-2
1461661460438076,-2,17,29,-6,-3,-4,-2,-2
1461661460438076,1,1,-32,6,2,1,-1,-2
1461661460447065,-2,-8,-15,-13,-5,1,0,-2
1461661460447065,1,2,4,0,0,-1,-3,-2
1461661460463069,-4,-5,-10,2,-1,-4,-2,-3
1461661460463069,-3,13,25,0,0,1,-1,-4
1461661460468090,-3,4,-7,2,0,2,-1,-2
1461661460468090,1,-1,-6,0,0,-1,-1,-1
1461661460484096,-2,5,-2,-5,-4,-1,-2,-2
1461661460484096,0,4,-1,1,1,1,-1,0
1461661460490122,-1,9,7,4,-2,-2,0,-1
1461661460490122,-2,2,5,-2,-2,-3,-1,0
1461661460498154,-4,-8,-12,-9,-3,-1,-1,-2
1461661460498154,0,6,5,4,2,1,0,-2
1461661460507193,3,12,28,6,-4,-4,-1,0
1461661460507193,-3,-20,-25,-9,2,0,-1,-2
1461661460521260,1,3,-11,-13,-2,-2,-1,-1
1461661460521260,-2,2,11,30,6,-1,0,0
1461661460528220,-1,5,19,3,7,3,0,2
1461661460528220,4,0,-6,3,0,-2,2,1
1461661460544217,-2,-2,-11,-12,-7,-1,-3,-3
1461661460544217,1,6,7,4,1,-1,-1,0
1461661460546222,-1,0,9,6,0,0,0,0
1461661460546222,3,15,26,4,0,-1,0,0
1461661460558257,-8,-31,-65,-7,-1,-2,1,-4
1461661460558257,1,2,0,-12,-4,-3,-2,-2
1461661460573267,2,-1,-8,-1,-2,-3,0,1
1461661460573267,0,1,10,0,0,1,-2,2
1461661460581256,2,16,8,-2,-2,-1,-2,1
1461661460581256,4,6,0,-3,-2,1,1,2
1461661460588307,-1,-10,-9,-2,-1,-2,-2,-1
1461661460588307,2,-2,-4,-3,-3,-1,0,0
1461661460604319,3,5,34,6,1,0,-1,0
1461661460604319,-6,-10,-20,-2,0,0,0,-2
1461661460610265,-1,5,-4,-7,-4,0,-1,0
1461661460610265,0,-5,-8,-3,-2,-1,-1,0
1461661460618327,-1,57,-4,-6,-9,-2,-3,-1
1461661460618327,-3,31,18,14,8,0,-1,-1
1461661460627291,3,12,4,9,7,3,1,2
1461661460627291,-1,-4,3,-13,-5,-2,-3,-1
1461661460641358,-5,-40,-17,-27,-7,-3,-4,-3
1461661460641358,3,-13,15,19,3,1,1,0
1461661460648337,-4,-21,-18,-11,-7,-3,-3,-1
1461661460648337,-6,-12,-11,9,2,-1,1,-2
1461661460663526,-2,-5,1,-14,-3,0,1,-3
1461661460663526,0,-6,-2,-17,-6,-3,-2,-2
1461661460670530,-1,-14,-5,3,-1,-2,-2,-2
1461661460670530,-1,-8,0,-8,-3,0,0,-2
1461661460686542,-2,-6,6,10,4,-1,-1,-3
1461661460686542,-3,-6,-1,-6,-5,-2,-2,-2
1461661460688519,1,5,5,9,5,1,-1,-1
1461661460688519,-2,2,-13,-8,-4,-2,-1,-1
1461661460709545,0,2,2,12,4,2,-1,-1
1461661460709545,-2,0,4,-2,-4,-2,-3,-2
1461661460710547,-4,0,-4,-24,-7,-3,-1,-3
1461661460710547,-1,4,0,6,0,0,-2,-1
1461661460723556,-3,-3,8,2,2,0,-1,-2
1461661460723556,2,2,-4,6,1,-1,0,0
1461661460730549,-2,2,-10,-12,-9,-2,-3,-2
1461661460730549,1,2,5,6,5,1,0,-2
1461661460746572,-1,1,16,9,1,-2,-1,-1
1461661460746572,-2,-5,-20,-22,-5,-3,-2,-2
1461661460748562,0,-3,-8,3,3,1,1,0
1461661460748562,2,6,7,4,-1,0,-2,2
1461661460760571,-1,3,2,-2,-4,-3,-3,-1
1461661460760571,-4,-6,-5,-4,-1,-1,-2,-2
1461661460769575,0,1,1,7,-3,-2,-1,-1
1461661460769575,-1,-2,-9,-18,-3,-1,-1,-1
1461661460783603,-2,-3,12,18,3,0,-2,-2
1461661460783603,-4,1,7,4,-2,-1,-1,-1
1461661460790630,2,0,-7,-1,0,0,1,0
1461661460790630,-1,-1,2,7,2,1,1,0
1461661460806642,1,-2,-7,-7,-3,-1,-2,-1
1461661460806642,1,-7,-9,-3,-2,0,0,0
1461661460808617,2,4,15,2,-1,0,-1,2
1461661460808617,1,0,-11,-10,-5,-3,0,0
1461661460821629,-2,-4,-4,-2,-2,-1,-1,-1
1461661460821629,-1,3,3,3,4,0,-2,0
1461661460827631,-1,5,11,6,3,0,0,-1
1461661460827631,-2,-6,-19,1,3,0,0,-1
1461661460843631,-1,1,-7,4,2,0,1,-1
1461661460843631,-3,-2,4,-5,-1,-2,0,-1
1461661460850691,-1,-1,0,-4,-3,-4,-2,-2
1461661460850691,1,3,8,-3,-3,0,-1,-1
1461661460866646,-3,-2,-5,-6,-9,-3,-1,-1
1461661460866646,-3,0,1,1,4,1,-2,-1
1461661460868646,2,6,4,11,3,0,0,3
1461661460868646,1,1,17,4,1,-1,-2,1
1461661460881656,-1,-2,-5,-4,-1,-1,-1,-1
1461661460881656,-1,-6,-10,-6,-4,-2,-1,-1
1461661460887659,-3,-4,-9,-11,-4,-1,-1,-1
1461661460887659,2,4,0,9,3,0,1,0
1461661460903671,-1,-1,9,9,2,1,0,-3
1461661460903671,0,-4,-14,4,-2,-1,-1,-1
1461661460910676,-2,-3,7,-1,-1,-1,0,-1
1461661460910676,-4,-9,-24,-10,-6,-3,-2,-2
1461661460926688,-1,-2,-4,-3,0,-1,-2,-1
1461661460926688,0,1,8,2,0,0,-2,-1
1461661460928689,-2,2,7,-1,1,0,-1,-2
1461661460928689,2,6,7,-1,-2,-1,0,0
1461661460940756,-1,1,10,-3,-3,-2,-1,-2
1461661460940756,-2,-10,-40,-7,-5,-2,0,-3
1461661460947703,-2,-3,-5,-3,-3,-1,-2,-2
1461661460947703,-1,-2,2,0,1,0,-2,0
1461661460963712,0,-3,2,5,3,1,-1,1
1461661460963712,0,5,25,3,1,-1,0,-1
1461661460970719,1,-1,-13,-4,-2,-1,0,-2
1461661460970719,-2,-6,-1,-2,-3,-3,-1,-3
1461661460986803,-2,1,4,-13,-7,-3,-1,-2
1461661460986803,-2,-2,-12,7,0,0,1,-1
1461661460988806,-1,-7,-5,-7,-3,-2,-2,0
1461661460988806,-1,9,14,4,-1,-2,-1,1
1461661461000837,1,-3,-5,11,4,-1,-2,-2
1461661461000837,1,8,24,-5,-3,-3,-1,0
1461661461007842,1,-3,-18,-2,-6,-3,-2,-2
1461661461007842,-2,-5,-10,1,5,2,0,-1
1461661461023820,0,-1,1,3,4,0,-1,0
1461661461023820,-2,-2,13,-1,-4,-3,-2,-2
1461661461030825,0,-2,-10,-5,-1,-1,-1,-1
1461661461030825,0,-1,-5,-6,-4,-1,-2,-1
1461661461046809,-2,3,10,-8,-6,-2,-2,-1
1461661461046809,-2,-4,-13,10,7,1,0,0
1461661461048812,-4,-2,7,-5,0,0,0,-1
1461661461048812,0,-3,2,3,0,2,0,0
1461661461068839,0,0,-10,0,1,-1,-3,-1
1461661461068839,3,2,9,-8,-5,-1,-2,-1
1461661461070840,2,2,-1,3,0,1,1,0
1461661461070840,-2,-1,3,2,-3,-1,-2,-2
1461661461083838,-2,-7,-20,-2,1,0,-1,-4
1461661461083838,-4,-5,-3,-10,-5,-2,0,-2
1461661461090870,-1,-1,-1,3,1,0,0,1
1461661461090870,2,7,12,-1,1,1,1,-1
1461661461106912,0,-3,-12,-4,-3,-3,-1,-1
1461661461106912,-4,-5,-7,-13,-5,-3,-2,-3
1461661461108880,0,3,8,7,2,1,2,0
1461661461108880,0,3,6,-1,-1,0,-1,-1
1461661461120862,-4,-5,-2,5,6,0,-2,-3
1461661461120862,0,-1,-15,3,-2,-2,-1,0
1461661461127961,-1,5,23,-6,-2,-1,-2,-1
1461661461127961,-2,-14,-14,2,0,0,0,-3
1461661461144001,-5,-8,-12,-8,-4,-3,-3,-3
1461661461144001,-1,0,1,-1,-2,-1,-2,-2
1461661461158013,-1,1,5,-1,-2,-1,0,-2
1461661461158013,1,5,-1,-3,-1,-1,-1,0
1461661461167018,-2,5,19,0,-1,-4,-1,0
1461661461167018,-1,-2,-12,-2,-2,-1,-2,0
1461661461167991,0,-1,-4,2,1,0,-1,0
1461661461167991,-1,-2,-4,1,-1,-2,-2,-1
1461661461181028,-2,-2,-2,0,-2,1,0,-2
1461661461181028,-2,-2,9,-2,-2,0,-1,-2
1461661461188034,-2,0,-3,2,-1,-2,-1,1
1461661461188034,-1,3,-8,-6,-5,-2,-1,0
1461661461204031,-3,-14,-16,3,6,-1,-1,-3
1461661461204031,2,11,32,5,-1,0,-2,-1
1461661461210019,-2,-9,-36,-7,-5,-3,-2,-1
1461661461210019,2,2,2,0,4,1,2,0
1461661461227032,-2,1,4,11,1,1,-1,-1
1461661461227032,0,0,1,2,0,0,0,0
1461661461228049,0,0,4,-6,-1,0,0,0
1461661461228049,-2,2,8,-11,-7,-2,-1,-2
1461661461241080,-1,0,1,6,-3,-2,0,-1
1461661461241080,-3,0,-5,-6,-4,-1,-1,-3
1461661461248085,2,2,6,5,3,-1,0,0
1461661461248085,-3,1,-3,-2,-2,-2,-2,0
1461661461264075,-2,-8,-20,-7,-2,-3,-3,-2
1461661461264075,-2,-4,8,1,-1,-1,-2,1
1461661461270100,1,9,20,3,0,-1,-1,-1
1461661461270100,-1,-10,-17,-1,0,-1,-2,-2
1461661461287132,-1,2,13,-5,-3,-1,0,0
1461661461287132,1,0,-10,-2,-4,-2,-1,-1
1461661461288085,-1,-1,-4,-1,1,-1,0,-2
1461661461288085,-1,0,9,2,-2,0,0,-1
1461661461300141,0,1,7,-2,-5,-1,-3,-2
1461661461300141,0,-4,-14,-9,-3,-1,0,-1
1461661461309130,0,1,5,0,0,-1,-3,0
1461661461309130,0,2,-1,-1,-2,-1,-1,-2
1461661461324133,-1,1,-6,15,4,1,-2,0
1461661461324133,2,3,11,-3,2,2,1,0
1461661461330133,-5,0,1,-6,-6,-2,-2,-4
1461661461330133,2,-2,-22,0,0,0,1,1
1461661461347119,-5,-2,12,-8,-6,-5,-2,-5
1461661461347119,1,2,5,7,1,0,0,-2
1461661461353185,-1,-4,1,0,-3,-2,-1,1
1461661461353185,0,-1,8,2,0,-1,0,-1
1461661461360127,-1,-1,5,-6,-2,-2,-2,-2
1461661461360127,-2,-4,-14,-4,1,0,-1,-1
1461661461377141,0,-7,-16,1,1,0,0,-1
1461661461377141,1,3,3,1,0,0,0,0
1461661461383156,-2,-2,-6,-5,-2,-2,-1,-2
1461661461383156,-1,1,10,1,0,0,0,0
1461661461390161,1,-2,-8,-3,-1,0,-2,0
1461661461390161,-2,2,11,6,1,-3,-1,-1
1461661461407218,3,3,-18,-10,-2,-2,-1,-1
1461661461407218,-5,-17,-25,-6,-6,-3,-3,-3
1461661461408165,-1,-1,7,1,-3,-4,-1,-1
1461661461408165,0,1,-1,19,11,5,2,2
1461661461420169,-4,0,17,8,-3,-2,-2,-1
1461661461420169,0,-1,6,5,4,0,0,1
1461661461437181,2,0,2,-1,-2,0,0,1
1461661461437181,0,5,-10,-17,-7,-4,-1,-1
1461661461444188,-2,-6,-8,-4,-2,0,0,-2
1461661461444188,2,7,5,7,2,-1,1,0
1461661461450209,-6,-8,-2,-2,1,-1,-3,-3
1461661461450209,-1,-1,2,-2,-1,-2,-2,0
1461661461467221,-2,-5,-5,-5,-4,-1,0,0
1461661461467221,-3,-3,-7,-4,-2,-1,-2,-1
1461661461468204,1,3,6,6,1,1,1,0
1461661461468204,-2,-5,-4,-3,-2,-1,-2,-2
1461661461481231,2,-3,-14,-4,-2,-1,-2,-4
1461661461481231,0,0,5,-3,-2,0,-1,2
1461661461497227,-1,2,3,-1,-1,0,-2,-3
1461661461497227,-1,-5,4,-4,-3,-1,-2,-1
1461661461503285,0,0,9,-6,1,-1,-2,-1
1461661461503285,0,3,-7,20,7,2,-1,-1
1461661461510324,1,-3,-12,0,0,1,-1,2
1461661461510324,0,5,2,-22,-8,-2,0,0
1461661461526389,-4,-12,-13,25,7,0,0,-4
1461661461526389,-1,4,7,-3,-2,-2,-2,-1
1461661461533338,-1,-4,-12,-10,-2,-2,-1,-2
1461661461533338,0,0,9,19,6,0,2,0
1461661461540355,-4,-2,-10,-16,-7,-1,-2,-1
1461661461540355,-2,4,14,-6,-2,-2,-2,-2
1461661461549349,3,2,6,15,4,0,1,0
1461661461549349,-2,-4,-3,-8,-4,-4,-3,-1
1461661461563370,-1,6,17,1,-2,-1,-1,-1
1461661461563370,-3,-10,-22,-5,1,0,1,-2
1461661461570419,0,7,19,-5,-4,-1,-1,-1
1461661461570419,-1,-3,-13,2,-1,0,0,-1
1461661461586433,-4,-7,-6,0,-4,-3,-4,-2
1461661461586433,3,2,3,-5,1,0,-1,-2
1461661461593387,1,-3,-10,-5,-2,-2,-1,0
1461661461593387,-1,-1,8,13,6,1,0,-2
1461661461600451,2,3,9,5,4,0,-1,1
1461661461600451,0,0,-8,-17,-6,-3,-1,0
1461661461609395,1,-1,-4,5,2,3,1,1
1461661461609395,-2,-3,5,12,1,-1,-2,-2
1461661461631411,-1,1,-3,-15,-4,-1,0,-1
1461661461631411,-1,2,0,0,-2,-1,-1,-2
1461661461633408,-3,-2,3,4,3,1,1,0
1461661461633408,-3,0,1,-11,-7,-3,-3,-1
1461661461646484,1,2,9,5,0,-1,1,0
1461661461646484,0,3,-7,-1,-2,-2,-1,0
1461661461653446,-2,-6,-18,-4,-1,-1,-1,-1
1461661461653446,-1,-5,-12,1,-1,0,-2,-1
1461661461660430,-2,0,-1,-10,-5,-3,-2,-1
1461661461660430,-3,-14,4,2,0,-1,-1,-2
1461661461669435,-1,-2,13,-3,-3,-3,-3,-2
1461661461669435,-2,-6,-10,0,2,-1,-2,-1
1461661461683449,-3,2,-3,-11,-6,-3,-3,-1
1461661461683449,1,3,-15,12,4,2,1,2
1461661461690454,-1,3,15,5,-3,-1,-1,-1
1461661461690454,1,3,3,-15,-1,2,1,-1
1461661461706460,-1,-1,6,14,0,-1,-3,-3
1461661461706460,3,5,-1,4,2,0,-2,1
1461661461714465,1,-2,0,-9,-3,-2,1,0
1461661461714465,-3,3,-21,-7,-2,-1,-1,-3
1461661461729492,0,3,4,3,3,-2,0,-1
1461661461729492,-6,-5,-3,-19,-6,-2,-1,-3
1461661461730492,-1,-4,-10,11,4,2,0,1
1461661461730492,2,-3,10,-5,-5,-4,-2,-1
1461661461743485,-2,-3,-7,-4,-1,1,0,0
1461661461743485,0,4,14,-3,-5,-3,-2,0
1461661461750503,2,3,1,-11,-2,-3,-3,-1
1461661461750503,-1,0,-2,-1,-3,-1,0,-1
1461661461766501,-4,-8,-3,11,8,1,-2,-3
1461661461766501,-3,-9,-18,10,-4,0,-2,-1
1461661461772505,-2,-1,6,3,1,0,-2,0
1461661461772505,1,4,18,10,3,1,0,0
1461661461789579,-2,-10,-32,-17,-6,-4,-2,-2
1461661461789579,-1,0,5,-4,-5,-1,-1,-2
1461661461791553,0,-1,-19,3,4,-1,-1,1
1461661461791553,-5,-3,13,-5,-4,-2,-4,-3
1461661461803588,-2,-4,-10,-12,-5,-1,-1,-4
1461661461803588,-1,-2,4,3,0,-1,0,-1
1461661461810638,1,2,-2,7,0,-2,1,2
1461661461810638,-1,4,5,-8,-2,0,1,0
1461661461825694,0,0,1,0,0,-2,-1,-3
1461661461825694,-1,3,-6,-3,-4,-4,-2,-1
1461661461834646,3,2,9,-6,-3,-1,0,-1
1461661461834646,0,-7,-12,5,0,-2,0,1
1461661461849718,-1,-4,-2,0,-2,-2,-1,1
1461661461849718,0,1,12,-11,-3,-1,0,-1
1461661461850661,2,8,-1,19,3,1,0,0
1461661461850661,2,-6,-20,-16,-1,-1,0,-1
1461661461863682,-4,0,11,16,1,-2,-3,-4
1461661461863682,2,5,-3,10,1,2,3,0
1461661461870687,-6,-3,9,-33,-13,-5,-2,-4
1461661461870687,-2,-9,-6,22,9,0,0,1
1461661461886699,-3,-4,-15,-8,-3,-4,-2,-1
1461661461886699,4,10,30,5,2,0,-2,0
1461661461892693,-4,-3,-7,-8,-2,-1,-1,-3
1461661461892693,-3,0,0,6,-1,0,-2,-3
1461661461909732,4,0,0,-6,-4,-4,-2,1
1461661461909732,0,-4,-5,-2,3,3,1,4
1461661461910696,-4,1,0,4,2,3,2,2
1461661461910696,-6,-4,-14,-14,-3,-1,0,-3
1461661461923742,-1,0,4,13,3,10,26,7
1461661461923742,-2,-4,-4,-17,-8,-1,-22,-2
1461661461930720,-2,-4,-6,-3,-3,-16,-14,-6
1461661461930720,5,7,12,6,-10,-16,-17,-5
1461661461945732,-4,-2,-4,-5,8,0,1,-8
1461661461945732,-1,-2,6,9,1,3,10,0
1461661461952781,2,-2,-9,-14,-2,10,9,3
1461661461952781,1,-1,14,24,5,5,5,0
1461661461969736,-2,2,4,5,1,-1,-6,-3
1461661461969736,2,0,-17,-31,-10,0,7,-1
1461661461970751,-13,-6,9,1,-4,-3,-2,-4
1461661461970751,5,0,2,-4,8,0,-1,4
1461661461991811,-5,2,28,1,-3,-3,-6,-2
1461661461991811,-5,1,-14,-2,1,3,19,1
1461661461993766,2,4,-10,-15,-4,5,-4,5
1461661461993766,-5,-7,-16,-50,-22,-8,-25,-5
1461661462005820,4,-3,-7,31,11,-6,-3,0
1461661462005820,5,17,17,11,1,-4,6,-2
1461661462012778,-3,-28,-2,9,4,5,0,5
1461661462012778,-12,-13,-5,6,-1,0,-7,-7
1461661462029795,-13,11,-1,-34,-12,-8,-35,-21
1461661462029795,6,1,-7,6,0,-5,31,11
1461661462030791,10,7,-23,-63,-20,-8,-5,13
1461661462030791,-7,-3,24,83,30,10,12,-3
1461661462042846,20,38,-6,-51,-12,-3,0,2
1461661462042846,-39,-87,-7,68,20,5,-4,-12
1461661462051796,-12,5,-13,-30,-11,9,19,-5
1461661462051796,3,8,0,0,-8,4,1,7
1461661462065804,-1,-21,12,54,42,15,20,5
1461661462065804,13,41,34,-21,-17,-9,-10,-4
1461661462072813,1,-15,-17,43,33,10,-23,-3
1461661462072813,1,29,-5,-10,-11,-6,-10,-11
1461661462096856,-8,-1,-13,-12,-16,-11,6,0
1461661462096856,-7,-34,-14,-41,-16,-15,-21,-1
1461661462098856,8,3,15,19,-1,-1,2,0
1461661462098856,5,8,-7,-32,-6,4,27,11
1461661462102845,11,-2,-6,-9,-7,7,-6,10
1461661462102845,-1,9,10,4,-6,-16,-16,-4
1461661462111839,-7,-35,5,18,9,-11,-6,-9
1461661462111839,-16,-59,8,-41,-11,-11,-18,-7
1461661462125907,20,-20,3,-5,-21,-8,18,23
1461661462125907,-4,-63,-43,-3,6,19,18,7
1461661462132854,-11,-62,20,112,72,25,5,-4
1461661462132854,-17,-49,6,-87,-46,15,73,-5
1461661462148880,-6,-21,-7,85,55,22,-44,-10
1461661462148880,15,-10,17,-53,-34,-44,-59,-4
1461661462156868,17,-5,-13,23,-14,-25,4,2
1461661462156868,-15,-2,-8,-14,1,4,-3,2
1461661462162875,-22,-2,21,-36,-7,16,13,-21
1461661462162875,36,93,-12,78,45,22,32,12
1461661462171880,-23,23,-27,-122,-62,-32,-63,0
1461661462171880,17,51,27,93,34,-16,-5,-5
1461661462185890,-21,21,-8,-37,-20,7,90,11
1461661462185890,14,71,23,56,20,32,-69,3
1461661462192893,13,20,-15,-17,-9,-16,-21,-21
1461661462192893,16,37,-39,-13,-10,-19,-28,-1
1461661462208905,-9,-17,-12,-8,7,-1,38,9
1461661462208905,-31,-23,-11,-107,-61,-5,48,-1
1461661462210906,0,105,37,73,44,24,-9,-6
1461661462210906,16,-11,-22,-1,-1,-8,-20,-12
1461661462222914,-23,-8,19,77,39,8,31,4
1461661462222914,30,17,-7,-50,-13,-4,-24,-5
1461661462231920,-24,14,-41,-59,-39,-14,5,4
1461661462231920,5,24,11,94,40,5,-52,-14
1461661462245932,14,-26,-14,-66,-38,-15,-12,-5
1461661462245932,-14,-74,-23,-53,-9,27,66,13
1461661462252935,-2,-53,45,85,43,1,-16,-5
1461661462252935,-25,-56,20,31,7,4,63,17
1461661462269003,35,-21,-3,13,-3,-12,-58,12
1461661462269003,-35,-48,-5,16,7,-31,-50,-31
1461661462270962,28,13,-11,-128,-85,-1,45,-9
1461661462270962,2,41,10,54,33,34,22,3
1461661462282956,-15,69,-17,85,33,-3,-27,-9
1461661462282956,15,106,-11,-4,-4,-19,-20,1
1461661462291980,6,98,2,-7,-4,-8,-2,3
1461661462291980,24,112,20,-21,-16,-4,-15,6
1461661462306084,-23,40,-23,-128,-67,9,26,-6
1461661462306084,-1,127,41,127,59,21,33,1
1461661462313043,13,99,47,98,24,-1,0,23
1461661462313043,-1,30,-39,-112,-25,-14,-40,-12
1461661462329054,-10,-82,-24,69,1,-23,-24,-18
1461661462329054,-18,-83,-35,-91,-2,6,-5,1
1461661462331056,13,-128,9,67,12,28,59,8
1461661462331056,3,-128,37,60,37,25,2,31
1461661462343201,-25,-90,-62,-91,-25,-25,-86,-34
1461661462343201,-1,-128,6,82,3,-30,-8,-6
1461661462352167,21,-89,-5,40,36,14,25,19
1461661462352167,1,-121,-46,-72,-36,0,-10,-14
1461661462366170,-30,-61,57,24,8,-18,-8,-13
1461661462366170,-9,-20,-18,-13,-8,7,5,-3
1461661462373222,9,30,7,-86,-16,-6,-20,-2
1461661462373222,6,3,1,19,-15,-2,42,3
1461661462389233,13,19,9,-56,-14,9,-26,-5
1461661462389233,32,17,41,61,9,2,35,6
1461661462391235,0,-3,-1,5,21,11,-2,10
1461661462391235,7,-39,-25,-85,-26,-4,19,10
1461661462412203,-24,-59,26,5,4,18,26,2
1461661462412203,-10,28,3,8,-5,-13,-9,-15
1461661462413192,-27,-105,-14,80,53,22,65,9
1461661462413192,1,-101,14,-44,-26,-37,-66,-7
1461661462426260,21,-92,-23,-70,-22,-24,9,9
1461661462426260,-11,46,29,34,31,38,29,15
1461661462433206,0,113,1,-3,-14,-16,-48,-41
1461661462433206,-31,27,-5,-44,-26,-3,9,-11
1461661462449276,39,-64,-1,111,47,9,-14,43
1461661462449276,10,62,12,-18,-30,-32,-10,-16
1461661462451250,-5,81,16,-4,-18,2,8,7
1461661462451250,25,5,-2,33,11,0,-19,-7
1461661462463256,-14,-36,-10,-40,-9,-15,-28,-20
1461661462463256,-38,39,11,5,23,55,41,12
1461661462479243,-3,80,-25,-128,-73,-9,-5,-26
1461661462479243,30,-12,15,1,11,-21,-52,1
1461661462486272,-29,-22,37,63,25,-50,-44,-9
1461661462486272,13,37,-38,-72,1,-8,13,9
1461661462493263,-44,62,-6,-95,-63,25,4,-13
1461661462493263,30,2,7,30,21,-4,19,14
1461661462508317,19,-17,-10,-3,-2,1,2,8
1461661462508317,-43,37,38,64,32,-11,-23,-18
1461661462515323,-14,55,-39,-53,-21,26,5,21
1461661462515323,51,32,-58,-114,-27,7,-13,-22
1461661462523330,-58,-5,23,47,22,-15,-42,-2
1461661462523330,41,33,9,4,-15,-12,-18,-4
1461661462532291,34,37,-25,42,21,-25,-32,16
1461661462532291,-2,-2,6,-47,-85,-11,29,-6
1461661462546287,63,3,-8,47,71,57,4,15
1461661462546287,-20,31,-30,-128,-54,-29,-32,-20
1461661462553353,-25,32,45,4,-30,-20,15,-22
1461661462553353,-36,11,-24,-45,-8,-20,-2,1
1461661462568317,-16,8,51,15,4,55,115,21
1461661462568317,90,20,-16,-34,-8,34,-7,18
1461661462575365,5,33,60,127,56,-41,-93,15
1461661462575365,-76,-5,-99,-52,-17,-33,-37,-17
1461661462583314,-10,27,13,-114,-55,-10,26,-30
1461661462583314,-8,25,-68,121,107,61,44,4
1461661462592351,13,37,-10,-103,-38,-16,0,-16
1461661462592351,-27,-8,61,100,21,-4,21,2
1461661462606386,5,0,13,-67,-42,-18,-24,25
1461661462606386,90,25,13,-66,-11,-31,-59,-8
1461661462613348,-86,39,-11,-82,-18,28,-46,-31
1461661462613348,6,-20,-26,64,19,-39,19,21
1461661462628359,-11,7,-45,-69,-32,-22,11,1
1461661462628359,-94,28,6,45,-12,12,23,-18
1461661462635364,13,31,10,77,48,12,7,-13
1461661462635364,-1,-3,35,-48,-14,27,-7,8
1461661462652378,90,13,-38,73,20,-9,-11,-5
1461661462652378,-59,29,33,13,-19,-10,-2,5
1461661462653360,19,24,-95,-75,-58,-12,32,-15
1461661462653360,26,-8,75,127,127,61,41,39
1461661462666382,50,21,-11,-118,-39,-5,-4,3
1461661462666382,-54,16,50,-72,-5,28,-3,-11
1461661462673441,64,28,-27,23,13,-19,73,26
1461661462673441,-21,4,25,-18,-31,-15,-31,7
1461661462688444,61,28,10,35,0,-13,-32,-51
1461661462688444,30,20,-14,-30,0,1,-20,30
1461661462695450,40,28,14,-8,-24,-63,-46,-14
1461661462695450,-103,6,-27,-35,-20,-9,5,7
1461661462711401,-60,13,-5,-5,20,27,26,-5
1461661462711401,62,24,3,-117,-65,-7,7,-17
1461661462713403,-87,21,40,95,114,55,39,2
1461661462713403,38,1,25,-51,21,16,-15,1
1461661462726425,-16,17,-28,73,41,5,11,6
1461661462726425,4,19,2,-87,-96,-42,-16,-12
1461661462733429,30,22,-13,66,47,33,6,20
1461661462733429,27,8,-3,-43,-1,9,12,-6
1461661462756446,13,25,50,81,-12,0,-4,0
1461661462756446,-29,24,-65,-13,6,-6,27,31
1461661462758435,65,22,33,-44,-22,21,82,29
1461661462758435,-16,11,-21,-1,7,16,-29,-15
1461661462771457,-87,16,-11,-77,-54,-81,-49,-6
1461661462771457,79,17,23,70,44,10,-31,1
1461661462773458,5,18,4,-25,-21,-3,-13,-5
1461661462773458,-8,10,-22,-14,-16,39,51,-20
1461661462785455,38,1,5,-6,-1,28,1,-3
1461661462785455,0,16,21,36,13,-36,-2,-15
1461661462794463,-51,16,-19,-27,-6,2,-12,-18
1461661462794463,15,29,0,-57,-60,-20,-9,-20
1461661462808530,-19,14,2,26,49,13,-4,17
1461661462808530,-45,20,-14,19,18,-3,3,-1
1461661462815476,15,-17,-13,45,6,-5,-17,0
1461661462815476,20,15,23,60,-40,-25,-19,1
1461661462831547,-34,26,19,-34,23,22,25,4
1461661462831547,22,3,-58,-89,-15,8,6,3
1461661462833537,38,28,-8,33,26,3,-4,41
1461661462833537,-10,11,-25,20,9,-16,-20,7
1461661462845604,-8,8,-15,-13,-27,12,22,11
1461661462845604,-52,16,2,-3,-1,1,12,4
1461661462854552,-18,17,9,-61,-27,-29,-3,-6
1461661462854552,29,127,4,12,18,-32,-50,-18
1461661462868592,58,127,-8,-8,-7,-2,-23,4
1461661462868592,16,48,12,30,5,16,-19,-7
1461661462875625,-13,-67,1,-24,-14,5,21,-6
1461661462875625,19,-56,16,20,19,30,25,-1
1461661462891607,-34,14,-12,-17,-21,-11,11,-12
1461661462891607,-16,-66,-14,-42,-13,-19,-3,-5
1461661462893587,-10,-96,21,-80,-36,-15,-24,-6
1461661462893587,-27,-46,20,35,18,2,12,-1
1461661462905650,14,26,-7,70,56,10,2,7
1461661462905650,-25,-73,6,34,-2,-5,1,0
1461661462914598,46,-128,10,-17,-3,-7,-18,-12
1461661462914598,-66,-49,-31,-65,-29,-8,7,7
1461661462928621,-30,-64,2,-29,-19,-3,-6,-9
1461661462928621,43,-128,4,46,20,5,28,31
1461661462935626,-2,-14,-14,19,5,18,3,6
1461661462935626,-20,127,8,14,17,11,20,-12
1461661462951677,33,127,1,-17,-10,-1,-20,-6
1461661462951677,-44,96,-3,-4,-5,-14,-28,-17
1461661462953623,6,81,3,-9,-13,-40,-45,1
1461661462953623,17,112,10,13,12,63,41,9
1461661462965642,-19,98,-11,-21,-2,35,24,0
1461661462965642,21,56,8,-23,-31,-12,7,-1
1461661462974637,-20,24,9,52,19,13,8,-4
1461661462974637,8,95,-8,0,15,-22,-11,0
1461661462988795,-5,109,-5,-15,-24,-16,-2,-5
1461661462988795,19,-94,41,69,19,5,-1,3
1461661462995798,-32,-7,-10,-36,4,2,1,-11
1461661462995798,-6,44,-1,9,4,-10,-9,-7
1461661463011782,8,11,-20,-39,-19,-2,8,10
1461661463011782,6,-34,-2,15,3,-2,-3,7
1461661463013767,-8,-111,6,7,5,10,5,-1
1461661463013767,-10,-115,-7,5,12,1,10,9
1461661463025792,-22,-100,-9,-9,-13,-13,-10,-5
1461661463025792,-10,-26,-3,-11,-5,-7,-9,-13
1461661463034769,3,-48,-2,3,-3,0,-11,-8
1461661463034769,22,74,2,-10,-4,-4,-8,2
1461661463048799,0,78,4,6,1,4,4,2
1461661463048799,-8,61,-5,1,6,9,12,3
1461661463055848,-3,91,-4,-24,-15,1,0,2
1461661463055848,10,74,-12,13,8,-6,1,4
1461661463071815,-1,-18,-28,-57,-24,-18,-4,-2
1461661463071815,-1,29,50,82,50,14,-1,-3
1461661463073801,2,48,3,4,2,2,5,5
1461661463073801,-1,10,6,-16,-13,-13,-10,-6
1461661463085824,12,48,11,48,31,9,2,0
1461661463085824,5,10,-23,-28,-9,-1,-2,-2
1461661463100854,-11,19,13,9,-3,-6,-2,-6
1461661463100854,-1,37,-9,-9,1,2,3,1
1461661463108861,14,37,-1,-9,-11,-16,-10,14
1461661463108861,-36,2,-13,-28,-17,-11,-8,-9
1461661463115843,-7,-21,-2,11,10,6,6,3
1461661463115843,1,-38,-6,-9,-1,39,10,-11
1461661463131837,2,-53,0,0,-3,10,5,-5
1461661463131837,15,-41,19,-1,-3,-7,-2,12
1461661463133851,2,-53,-31,-11,-7,-12,-3,2
1461661463133851,-1,-33,13,7,3,-14,7,13
1461661463145886,-7,-20,2,-6,-4,-4,-25,-35
1461661463145886,-1,-12,-26,-9,-3,-3,-4,-4
1461661463154884,-2,-5,30,11,2,-6,-2,-2
1461661463154884,3,-1,-9,-6,-8,-7,-7,-4
1461661463176885,-1,14,-10,-26,-2,-1,9,7
1461661463176885,2,6,22,25,10,1,1,-1
1461661463178870,-4,-12,-31,-37,-20,3,-1,4
1461661463178870,4,12,36,70,33,4,0,5
1461661463191882,-4,15,1,18,0,-5,2,1
1461661463191882,-4,-16,-24,-13,-5,3,2,-2
1461661463193883,-1,-17,19,-4,3,3,4,7
1461661463193883,-5,-26,-25,-22,-10,-8,-10,-9
1461661463205904,-4,18,2,-8,-8,-8,-4,-6
1461661463205904,-3,-8,-16,-9,-3,-3,0,2
1461661463214896,-3,-18,3,13,5,13,6,0
1461661463214896,-4,-34,-9,-19,-9,-17,-7,-11
1461661463228906,1,-51,2,9,3,12,3,0
1461661463228906,2,-35,0,-13,-8,-4,-1,2
1461661463235927,1,-9,14,7,4,1,-4,-3
1461661463235927,-3,-14,-19,-10,-2,3,-4,-7
1461661463251941,0,16,21,7,0,-1,3,3
1461661463251941,-1,19,-19,-9,-4,2,-1,0
1461661463253943,-1,15,26,0,1,-3,-4,-3
1461661463253943,-1,-22,-11,-2,-3,-4,-5,-3
1461661463265935,-9,-55,-27,-6,-5,-2,-1,-3
1461661463265935,1,-29,-41,-8,-5,-1,1,0
1461661463274946,-2,-11,24,1,5,0,0,1
1461661463274946,1,4,11,-10,-3,-2,-2,-1
1461661463288954,4,1,33,12,2,0,2,1
1461661463288954,-13,-38,-17,-10,-7,-3,-2,-4
1461661463295962,1,-4,-11,7,3,-1,2,4
1461661463295962,-4,32,-2,5,0,-2,-4,-2
1461661463311965,-2,11,-16,-4,-3,-4,-3,0
1461661463311965,4,17,27,-1,1,2,3,4
1461661463317969,-2,-15,1,5,0,0,-1,1
1461661463317969,-5,-33,-28,-11,-5,-2,-4,-3
1461661463325975,0,-14,3,2,1,-2,0,0
1461661463325975,-1,-6,13,-5,-4,-1,-1,2
1461661463334981,1,-11,-19,1,0,0,-1,0
1461661463334981,-2,-10,-22,-5,-4,-2,-1,-3
1461661463348994,-6,0,24,-20,-10,-5,-1,-3
1461661463348994,7,9,25,20,4,4,2,1
1461661463355997,0,18,21,1,-2,-2,-1,-1
1461661463355997,2,19,-9,-10,-4,-1,0,0
1461661463372038,-5,-39,-98,-6,-9,-2,0,-1
1461661463372038,3,28,73,22,16,5,1,1
1461661463374015,-2,16,-16,5,-1,-3,-2,1
1461661463374015,-5,26,19,-9,-4,-4,-2,-2
1461661463386024,3,18,21,-3,0,0,0,1
1461661463386024,1,-9,-21,-11,-5,-2,0,1
1461661463394038,3,-7,3,6,0,0,0,1
1461661463394038,-3,-14,4,-3,-2,0,-2,-1
1461661463409073,-4,-5,5,0,1,0,2,-1
1461661463409073,0,-12,-9,-4,-2,1,-2,-4
1461661463415077,-3,-3,-4,-2,0,1,-1,0
1461661463415077,-3,-13,-10,-3,-2,-1,-1,-3
1461661463431049,3,10,15,9,3,1,1,0
1461661463431049,-1,6,-7,-7,-4,-2,0,0
1461661463438054,-1,2,-19,-6,-2,0,0,0
1461661463438054,-2,1,2,-1,-8,-3,-2,-4
1461661463445058,-4,1,11,-3,5,2,-1,-1
1461661463445058,-2,8,-9,-5,-2,-4,0,-1
1461661463454104,-5,-17,-13,18,3,-1,-1,-4
1461661463454104,0,1,12,-1,7,2,1,-1
1461661463469138,0,13,50,-13,-6,-4,-3,-3
1461661463469138,0,2,-38,-4,-3,-2,1,-2
1461661463475139,-5,-10,-22,-1,-6,-3,-2,-4
1461661463475139,1,-7,-19,0,-1,0,0,-1
1461661463491150,-1,5,4,-1,-1,-2,-2,-3
1461661463491150,0,-2,-1,-9,-2,-3,-1,-1
1461661463499160,4,10,18,-2,-2,-1,-1,-1
1461661463499160,-4,-4,-4,-8,-5,-4,-4,-4
1461661463514107,2,1,-7,7,2,-1,-1,1
1461661463514107,-2,-3,5,5,-1,-1,-2,-1
1461661463516109,-2,2,-6,-5,0,2,-1,1
1461661463516109,-2,2,14,0,-2,-1,-2,-2
1461661463529118,-1,6,-3,4,3,1,-1,0
1461661463529118,-3,-4,-7,-3,-4,0,-1,-1
1461661463535182,2,0,-4,0,1,-1,0,0
1461661463535182,-1,4,7,0,-2,-1,-3,0
1461661463551134,-3,-7,-17,14,4,0,0,-2
1461661463551134,0,4,13,-6,-2,1,-2,0
1461661463558198,-3,-1,-5,-13,-7,-3,-3,-3
1461661463558198,4,9,24,20,10,1,2,1
1461661463565155,-3,-6,-20,-20,-9,-4,-3,-2
1461661463565155,-2,-6,-19,5,3,0,0,0
1461661463574187,1,2,-9,-8,-4,-1,0,-1
1461661463574187,-2,4,0,-7,-5,-5,-2,-2
1461661463597167,3,8,19,1,0,-2,-1,2
1461661463597167,-1,-1,14,1,1,0,-1,0
1461661463598169,-3,-3,-7,-6,-1,-1,-2,0
1461661463598169,-2,-5,-6,4,-1,0,-2,-1
1461661463611192,2,2,0,4,2,1,0,0
1461661463611192,1,7,16,3,0,-1,-1,-1
1461661463618196,-2,-5,-9,2,-1,-2,0,-2
1461661463618196,-3,-7,-1,-7,-3,-1,-3,-2
1461661463634192,-2,-3,-4,-7,-4,-3,-1,-1
1461661463634192,-1,0,6,4,1,0,-2,-1
1461661463636196,0,-3,-13,4,6,3,1,1
1461661463636196,-2,-4,-18,-3,-2,-3,-2,-3
1461661463649221,-4,-4,8,0,-6,-2,0,-2
1461661463649221,0,-2,-12,-7,-1,-1,1,0
1461661463655267,0,5,12,-16,-4,-2,-2,-1
1461661463655267,0,0,3,5,-2,-1,-3,0
1461661463671222,1,-1,-1,11,3,2,0,1
1461661463671222,2,9,11,-5,-2,-1,-1,0
1461661463678223,-3,-16,-18,0,-2,-3,-1,0
1461661463678223,-4,7,11,-13,-5,-4,-1,-3
1461661463694248,-2,-5,-15,-7,-3,-1,0,-1
1461661463694248,2,1,2,-1,0,-1,-1,0
1461661463696237,3,9,17,3,0,0,-1,-2
1461661463696237,-1,-2,-1,-4,-1,0,-1,-2
1461661463708257,3,-1,-11,3,-1,0,-3,-2
1461661463708257,-3,-10,-14,7,3,-1,0,0
1461661463715267,-2,0,-2,0,1,-1,-1,0
1461661463715267,-4,-8,-3,-21,-8,-3,-2,-2
1461661463731273,0,7,10,24,13,5,1,0
1461661463731273,-1,0,-1,-11,-4,0,0,-1
1461661463738278,0,5,27,17,1,-1,-2,-1
1461661463738278,-3,-10,-36,-3,-2,0,-1,-1
1461661463754278,-2,-1,-8,-9,-5,-4,-1,-2
1461661463754278,-2,-5,-1,-6,-4,-1,-1,0
1461661463756290,2,-2,-8,-3,-1,0,0,1
1461661463756290,-1,5,36,11,-2,-4,-3,-1
1461661463768299,0,-3,-9,-1,-1,-3,-1,0
1461661463768299,1,-1,-6,3,-3,-4,-2,-1
1461661463775332,2,1,-3,-3,-3,0,-1,-1
1461661463775332,-1,2,-3,-10,-2,-1,-1,0
1461661463791344,-2,-6,-1,0,-4,-1,-2,-1
1461661463791344,-2,-8,-6,5,0,-1,-2,-3
1461661463798348,0,2,-3,6,4,2,1,0
1461661463798348,-3,-6,6,2,6,-1,-2,-1
1461661463813337,4,7,-7,-8,-2,0,0,1
1461661463813337,0,3,2,-4,-4,-3,-2,-2
1461661463822344,-2,-2,3,3,1,0,0,-2
1461661463822344,-1,-2,-3,1,-2,-1,-2,-2
1461661463828330,2,4,5,-2,2,1,0,2
1461661463828330,-4,0,8,-4,-2,1,-1,0
1461661463835335,-1,4,-3,2,0,-2,-1,-1
1461661463835335,-2,5,6,3,1,0,0,0
1461661463851411,0,-1,11,-4,-3,-2,-2,0
1461661463851411,1,-4,-10,-3,1,0,0,0
1461661463858415,1,-2,-6,-5,-1,0,0,1
1461661463858415,-2,-1,0,3,0,-2,-2,-3
1461661463874363,-1,0,2,4,-2,-3,0,1
1461661463874363,-3,-13,-27,-10,-2,-2,0,-2
1461661463876387,-3,0,1,-6,-3,-1,-2,0
1461661463876387,1,0,-5,2,-1,-1,-3,-1
1461661463888394,-1,0,5,2,0,-1,0,-2
1461661463888394,-2,1,2,-22,-11,-3,-1,-2
1461661463895399,-1,-2,4,25,9,2,-2,-2
1461661463895399,0,-1,-4,11,8,5,2,2
1461661463911405,-1,-3,-21,-5,1,-1,-2,-2
1461661463911405,-1,4,14,14,5,1,0,-1
1461661463918405,-5,-1,29,-14,-7,-3,-4,-3
1461661463918405,-4,-15,-33,-4,-3,-3,-1,-3
1461661463934463,1,-2,-4,-12,-7,0,0,0
1461661463934463,0,3,3,2,1,2,0,-1
1461661463936457,1,0,-12,2,-1,-2,-1,-1
1461661463936457,-2,2,13,-1,-2,-2,-1,-2
1461661463948472,-1,-1,2,-4,-1,-3,-2,-1
1461661463948472,2,3,10,-1,-2,-2,-1,2
1461661463955477,-2,-2,-9,-3,0,-1,-1,0
1461661463955477,-2,-7,-14,-9,-5,-3,-3,0
1461661463971490,-3,-3,-3,5,-1,-1,-2,-2
1461661463971490,0,1,5,3,1,-2,-2,0
1461661463978435,1,3,-3,-1,-2,-2,-1,-2
1461661463978435,0,0,-2,-8,-6,0,-1,0
1461661463994477,-4,-5,-8,-7,6,1,0,-1
1461661463994477,0,2,11,3,1,0,0,0
1461661463996450,0,0,-8,-6,-3,1,-2,0
1461661463996450,-4,-11,-26,-10,-3,-3,-2,-4
1461661464008520,-2,2,33,26,4,0,0,1
1461661464008520,-1,-2,-12,-9,-4,0,0,-1
1461661464015492,0,-3,-11,-6,-1,-1,0,0
1461661464015492,-1,5,9,-3,-3,-1,-2,-2
1461661464039508,0,1,-5,-14,-4,-1,0,-2
1461661464039508,0,-5,0,14,4,0,-2,-1
1461661464041510,-1,2,5,4,-1,-2,-1,-2
1461661464041510,-4,-9,-12,-6,-2,-3,-2,-4
1461661464054505,0,1,-5,-5,-3,0,-1,-1
1461661464054505,-2,-4,-3,1,1,1,1,1
1461661464055505,1,-3,-7,-8,-3,0,-1,-1
1461661464055505,0,5,18,6,5,1,0,-2
1461661464068500,0,2,-3,2,-2,-2,0,1
1461661464068500,-2,-2,-4,-2,-7,-3,-2,0
1461661464075544,3,1,-4,-12,3,4,0,4
1461661464075544,-2,-2,-1,7,2,0,0,-1
1461661464091556,-1,8,28,8,1,-1,-1,-1
1461661464091556,0,0,-5,-3,0,0,-2,-2
1461661464097535,-3,-10,-25,-7,-6,-4,-1,-4
1461661464097535,-3,-3,-9,-19,-8,-4,-4,-4
1461661464114532,-2,-1,5,3,-3,-2,0,-1
1461661464114532,0,2,2,6,3,1,-1,0
1461661464115533,0,2,-5,4,1,-1,-2,0
1461661464115533,-3,-8,-1,2,-2,-1,0,-2
1461661464128562,0,-2,-2,-7,-4,-2,-2,-1
1461661464128562,0,-1,-6,-7,-3,-1,-1,1
1461661464136567,-5,-9,-12,0,1,-3,-1,0
1461661464136567,-1,3,13,4,1,-3,-2,-2
1461661464151618,1,-3,-5,-4,-2,0,-2,-1
1461661464151618,2,-2,-1,-1,0,-1,1,0
1461661464158580,-3,-3,4,3,2,1,-2,-3
1461661464158580,0,6,11,3,-1,-2,0,1
1461661464174634,-3,-6,-23,-8,-4,-1,-2,-2
1461661464174634,-2,-3,1,-10,-6,-2,-1,0
1461661464175577,-2,-2,-7,10,8,1,-1,-2
1461661464175577,-3,3,25,-11,-4,-3,-2,-3
1461661464187598,2,4,15,24,7,3,1,2
1461661464187598,-1,2,0,-2,-1,-2,-1,-2
1461661464196649,-2,-4,-7,-20,-9,-2,0,0
1461661464196649,1,0,-6,20,2,0,-2,-1
1461661464211603,-1,0,3,-11,-3,-1,-1,-2
1461661464211603,-1,-6,2,-2,-2,-2,-1,-1
1461661464218608,-1,0,-2,-3,-3,-4,-1,-2
1461661464218608,2,3,0,1,1,0,0,0
1461661464234617,1,0,1,-7,-3,-2,-2,2
1461661464234617,-1,-15,-25,8,4,0,0,0
1461661464235618,1,6,24,-8,-6,-2,-1,-2
