timestamp,emg1,emg2,emg3,emg4,emg5,emg6,emg7,emg8
1461662546716477,0,0,-12,-3,-1,-1,-2,-1
1461662546716477,-5,-2,8,-2,-3,-1,1,-2
1461662546723458,1,6,13,3,4,1,-1,-2
1461662546723458,1,5,10,-1,2,0,-1,-2
1461662546740487,4,0,-1,-1,-1,0,0,1
1461662546740487,-6,-7,-13,-21,-14,-7,-3,-2
1461662546741474,-5,-4,2,1,-7,-1,-3,-4
1461662546741474,5,7,9,-4,-3,-2,-1,-2
1461662546769588,-2,-2,-5,8,13,1,-1,-1
1461662546769588,-1,4,0,5,-2,1,-3,0
1461662546771584,-2,-4,-4,-2,-5,-4,0,4
1461662546771584,7,8,7,8,8,2,2,3
1461662546776598,-2,1,6,1,-4,-5,-2,-1
1461662546776598,-4,0,-1,-9,-3,-3,-1,-3
1461662546783650,1,1,7,-2,1,0,-1,-1
1461662546783650,-2,-9,-14,-5,-4,0,-2,-3
1461662546799662,3,4,0,1,-3,-1,0,-2
1461662546799662,-3,3,7,5,1,0,0,-1
1461662546801607,-7,-16,-37,-12,-5,-3,0,-2
1461662546801607,0,4,30,-1,-3,-1,0,-2
1461662546813641,-5,-6,-10,1,-1,1,0,1
1461662546813641,-4,-2,8,-2,-2,0,0,-2
1461662546822619,1,4,6,-2,-2,-2,-2,0
1461662546822619,4,4,-3,6,1,-1,-1,2
1461662546836631,-1,-7,-9,-11,-1,0,-3,2
1461662546836631,-4,-5,-4,11,11,4,1,3
1461662546843704,1,4,6,13,4,-1,-2,-1
1461662546843704,1,6,13,7,-1,-2,-1,-2
1461662546859651,-3,-6,-9,3,2,1,-1,-5
1461662546859651,-3,0,-6,-7,-4,0,0,-2
1461662546861652,-1,1,-6,-11,-3,-1,-2,0
1461662546861652,-3,-9,-10,4,1,-2,-2,-3
1461662546873661,4,9,13,-3,-2,0,1,1
1461662546873661,2,2,-9,2,2,0,0,0
1461662546882667,2,13,16,-6,-2,0,0,0
1461662546882667,-1,0,2,-4,-2,-2,-1,-1
1461662546896714,-5,-6,-10,1,-1,-1,0,0
1461662546896714,0,-2,9,-3,-1,0,1,0
1461662546903679,4,2,0,0,-5,-4,0,0
1461662546903679,1,-2,3,4,2,0,-1,0
1461662546919691,-3,-2,0,-4,-3,-4,-2,-4
1461662546919691,-10,-7,-1,-8,-4,0,-1,1
1461662546921691,-2,2,-1,15,8,6,1,2
1461662546921691,17,-8,-4,-5,6,3,5,1
1461662546933699,2,-3,0,3,-6,-4,-4,-5
1461662546933699,-14,0,-2,10,7,3,-2,-1
1461662546942708,-12,1,12,-4,0,-1,0,2
1461662546942708,7,0,-4,-2,-3,-1,1,0
1461662546956716,8,2,-2,-4,-2,-2,-2,-2
1461662546956716,-12,-1,-1,-7,-9,-5,-2,-1
1461662546965762,-12,-6,-6,3,1,-1,0,1
1461662546965762,9,-3,-9,-6,-4,-1,-1,-1
1461662546979791,8,5,5,-4,-3,-2,0,-5
1461662546979791,-11,-24,-7,-1,-2,-2,0,-2
1461662546981760,-5,3,0,-1,4,2,1,1
1461662546981760,-1,1,-4,-19,-10,-2,-4,3
1461662546993801,-4,-9,-5,9,2,-3,-4,-2
1461662546993801,6,5,0,1,3,-2,-2,-1
1461662547002765,4,-2,5,4,1,0,2,-1
1461662547002765,-7,-3,-5,-7,-5,-1,-2,-5
1461662547016819,-3,3,1,9,9,4,1,2
1461662547016819,7,7,-11,-18,-6,-2,0,0
1461662547023762,9,-2,-5,9,2,0,0,-1
1461662547023762,-3,6,15,0,-3,-2,-1,-1
1461662547039831,-5,-2,6,0,-4,-1,-1,0
1461662547039831,7,4,2,-3,-5,-3,0,-2
1461662547045835,9,3,-2,-15,-7,-4,0,-3
1461662547045835,-1,-15,-15,20,4,-2,0,2
1461662547053797,-8,34,14,2,0,1,0,1
1461662547053797,7,-10,-3,1,0,4,1,2
1461662547069793,5,1,-17,-14,-5,0,-2,0
1461662547069793,-6,-12,5,0,-2,-2,-3,-2
1461662547076798,0,8,-3,2,6,3,2,4
1461662547076798,3,5,-4,4,1,-1,-2,-3
1461662547083803,-2,-7,6,0,-2,-3,-3,-3
1461662547083803,-4,3,3,2,-3,-2,-2,-3
1461662547099815,-3,-12,-7,-10,-6,-1,-1,1
1461662547099815,-3,-7,-1,-6,-5,-4,-2,-1
1461662547101816,1,-7,-6,1,-1,-2,-1,1
1461662547101816,0,11,3,-5,-2,1,1,0
1461662547113825,-3,-5,-10,-7,-3,0,-1,-3
1461662547113825,-7,-7,25,9,2,1,-1,-1
1461662547122831,5,4,10,0,-3,-1,1,-1
1461662547122831,-6,-13,-20,-8,-1,0,-3,-6
1461662547136841,-4,-11,-6,1,-1,-1,-2,-3
1461662547136841,4,7,-6,3,-2,-3,-1,2
1461662547143845,2,3,0,-1,4,1,0,2
1461662547143845,2,7,2,-7,-2,-4,-2,-2
1461662547159858,-3,-3,6,7,2,0,-1,1
1461662547159858,-3,0,-11,-2,1,-1,-2,0
1461662547162862,-1,-4,7,0,2,0,0,-2
1461662547162862,7,6,4,0,-3,0,0,-1
1461662547173879,-3,-2,-6,-7,-6,-4,-2,-5
1461662547173879,-11,1,-1,2,-1,0,-1,3
1461662547182888,-4,-5,-10,-1,-2,0,0,3
1461662547182888,11,1,-2,-3,0,-1,1,3
1461662547196899,2,-3,11,2,-2,-3,-3,-5
1461662547196899,-11,3,-14,-5,-2,-1,-1,-6
1461662547204890,-4,5,0,-2,-2,-2,-1,1
1461662547204890,11,1,-1,1,1,1,0,2
1461662547219901,1,-9,-9,-9,-5,-3,-3,-2
1461662547219901,-14,0,-1,-1,0,-1,0,-3
1461662547221901,-11,-5,0,1,0,0,-3,-2
1461662547221901,10,2,1,-1,0,-1,0,-2
1461662547233969,6,-6,-1,-2,-2,-1,-1,-1
1461662547233969,-7,-2,2,1,1,-1,-2,-1
1461662547243038,-8,-2,2,-2,-1,-2,1,1
1461662547243038,4,-1,0,1,0,2,-2,-2
1461662547257028,2,-2,-5,-3,-5,-1,-2,-4
1461662547257028,-6,1,1,1,0,1,-3,2
1461662547264093,-4,2,1,-2,0,-1,-2,-1
1461662547264093,4,2,-1,0,0,-2,-2,0
1461662547280057,-5,-12,-6,-3,-1,0,0,-2
1461662547280057,-5,-3,-4,-4,-2,0,0,-3
1461662547282040,1,6,6,-1,-2,0,-2,0
1461662547282040,3,2,4,-4,0,0,-1,-2
1461662547294115,-1,-3,1,2,0,-1,-1,-4
1461662547294115,-3,1,0,8,4,-1,1,0
1461662547303050,-2,-5,-6,-5,-2,-3,-2,0
1461662547303050,-2,1,-9,-11,-10,-4,0,-1
1461662547317064,-3,-5,-1,2,7,1,3,0
1461662547317064,9,2,1,1,0,0,1,1
1461662547325067,-4,-6,0,3,3,-2,0,0
1461662547325067,-4,10,7,5,0,1,-3,1
1461662547340079,-4,-5,-6,-5,-2,0,-1,3
1461662547340079,6,-5,0,-4,-4,1,-1,-1
1461662547342080,5,3,2,1,-1,1,0,1
1461662547342080,-11,-8,1,0,-1,-2,1,-2
1461662547354095,-4,2,-2,-4,-4,-3,-2,0
1461662547354095,6,-1,2,1,0,-1,-3,0
1461662547363092,1,-8,-1,1,-2,0,-4,-3
1461662547363092,-8,-4,-3,0,-1,-1,-1,-4
1461662547377104,-3,0,-2,-2,-3,-4,-3,-4
1461662547377104,2,-5,-2,-3,-4,-4,-1,-4
1461662547384106,7,1,2,0,-3,-1,0,-2
1461662547384106,-3,-2,-7,3,3,-1,-3,-2
1461662547400121,-2,2,-3,-5,-3,1,-2,0
1461662547400121,2,0,6,3,-2,1,-1,-1
1461662547406123,0,3,-1,-4,-4,0,-1,-2
1461662547406123,1,-8,-26,-2,2,4,1,2
1461662547413125,-3,15,42,-1,0,-1,-3,0
1461662547413125,-21,-35,-57,-17,-9,-3,-1,-9
1461662547422133,6,7,-23,8,6,3,3,2
1461662547422133,9,7,27,6,2,0,10,11
1461662547437159,-5,-4,10,-5,-4,-1,-1,2
1461662547437159,3,22,39,5,0,-1,-7,-7
1461662547444165,-3,-1,21,3,2,2,2,4
1461662547444165,0,-6,-25,1,0,0,-5,-4
1461662547460249,3,-5,-14,4,2,-4,3,10
1461662547460249,0,-2,16,2,1,2,6,5
1461662547461250,2,-4,-21,-6,-2,-3,-4,-4
1461662547461250,8,10,28,1,0,-2,1,3
1461662547473259,-3,-2,0,-3,-1,-2,-3,-8
1461662547473259,-13,-2,-7,-3,-1,-3,-4,-2
1461662547482266,-2,0,1,-1,0,-2,-2,0
1461662547482266,4,-11,-13,-8,-3,-3,-4,-4
1461662547497347,-2,-3,-8,1,-2,0,-1,-4
1461662547497347,-9,21,26,5,0,-2,0,2
1461662547503281,-11,-15,-18,-4,-1,-3,2,3
1461662547503281,8,-13,-37,-13,-5,-3,-2,-13
1461662547519353,1,-12,-32,3,4,5,11,20
1461662547519353,-19,3,70,1,-6,-6,-8,-9
1461662547526296,2,4,20,11,2,2,-11,12
1461662547526296,9,1,15,-2,-5,-1,13,18
1461662547533301,5,5,3,0,0,-1,-17,-46
1461662547533301,-3,-7,-48,-6,5,4,6,21
1461662547542307,-9,0,7,-4,-4,-3,9,-7
1461662547542307,8,-13,-21,-1,-3,0,-13,-13
1461662547557318,0,-1,-16,0,-2,1,14,13
1461662547557318,-14,1,-7,-4,-3,-2,-1,-8
1461662547564324,3,4,-2,-1,-3,-3,-8,-16
1461662547564324,19,6,4,-2,-1,-1,3,7
1461662547579335,-6,0,11,2,0,-2,-3,-2
1461662547579335,-16,-1,-2,3,3,0,-5,-4
1461662547586355,-2,-1,0,-4,-5,-2,-1,4
1461662547586355,15,-2,-1,5,3,0,2,0
1461662547593406,2,2,4,-1,-2,-2,-6,0
1461662547593406,-12,-1,-15,1,-1,-2,-5,-2
1461662547602384,-6,-9,-19,-6,-2,2,7,4
1461662547602384,13,-3,5,-3,-3,-4,-6,-5
1461662547617369,3,1,1,-2,-1,-2,-3,-5
1461662547617369,-11,2,0,1,-1,-2,5,2
1461662547623384,-7,-5,20,0,-2,-5,-3,-4
1461662547623384,6,-2,12,1,-1,-3,-10,-6
1461662547639396,2,1,-19,-8,-6,0,-3,2
1461662547639396,-5,7,6,9,7,3,4,2
1461662547646400,1,1,-2,-9,-3,0,-3,0
1461662547646400,8,-1,-5,-1,-2,-3,-5,-4
1461662547653398,0,4,1,11,5,0,2,1
1461662547653398,-7,-9,-8,-4,-5,-3,-1,-6
1461662547662392,3,-2,-7,4,8,3,-2,0
1461662547662392,-4,2,16,2,-1,-2,3,0
1461662547676441,-1,2,11,-6,-6,-1,0,-1
1461662547676441,-3,-1,-4,-8,-6,-3,-5,-4
1461662547683447,0,-4,-19,-3,-3,-3,-2,-4
1461662547683447,-1,-2,-8,-8,-1,0,3,-4
1461662547699461,-5,-9,-9,-1,-1,-1,10,8
1461662547699461,-2,-8,18,-4,-2,-1,-19,-26
1461662547706439,5,-2,0,1,0,3,7,9
1461662547706439,-1,9,39,8,0,2,-3,0
1461662547722467,-2,1,-13,5,3,-1,1,1
1461662547722467,0,-9,-38,-9,-1,1,7,10
1461662547724445,1,-1,-4,-6,-3,-5,-5,-3
1461662547724445,2,3,-8,8,0,-2,-1,0
1461662547736446,-7,0,38,4,2,-2,-1,-5
1461662547736446,-5,-1,-33,-7,-7,-1,2,2
1461662547743467,-2,-1,14,3,0,-1,-4,-2
1461662547743467,9,-1,-13,2,3,4,5,7
1461662547759462,-2,-4,-1,7,4,1,-3,-3
1461662547759462,-5,4,1,4,4,1,2,3
1461662547767467,2,4,-8,-2,-2,-4,-1,2
1461662547767467,1,-20,-21,-14,-8,-3,-4,-3
1461662547782477,-2,5,62,-5,-10,-4,-3,-11
1461662547782477,-11,2,-7,6,2,0,3,3
1461662547784478,-4,5,23,2,-2,1,0,-3
1461662547784478,16,-3,-30,-6,-1,0,-2,1
1461662547796487,1,4,-19,-7,1,-2,-4,1
1461662547796487,-8,2,24,1,0,-3,3,1
1461662547805495,2,-2,-13,-1,-2,-4,0,-1
1461662547805495,13,-2,0,2,1,-2,-4,-4
1461662547819505,-8,-5,-8,1,1,3,1,5
1461662547819505,-19,-8,-28,-1,-3,-1,1,1
1461662547826509,-3,-1,5,-23,-10,-5,-4,-3
1461662547826509,16,-4,6,6,-3,-3,0,-5
1461662547842524,-4,5,9,1,-1,-1,-1,-2
1461662547842524,-28,4,1,6,4,1,3,2
1461662547844525,-4,-1,19,7,-1,-2,-3,-4
1461662547844525,20,-4,4,-6,-2,2,0,-1
1461662547856542,2,-12,-41,-10,-5,-1,-2,-1
1461662547856542,-18,0,6,-4,-2,-2,-1,0
1461662547865575,4,3,5,-3,-4,-2,0,-3
1461662547865575,2,-15,0,-2,1,0,-2,-5
1461662547879605,1,6,-1,2,0,-2,-1,3
1461662547879605,13,2,7,1,2,0,-1,2
1461662547886552,-10,-17,-46,-2,2,-1,1,3
1461662547886552,27,23,51,0,0,0,-1,-5
1461662547902620,-31,-6,-27,6,0,-3,-3,-7
1461662547902620,-31,-26,29,-11,-9,-1,1,0
1461662547904567,16,1,-10,2,1,0,0,-3
1461662547904567,-11,1,-30,-1,0,1,-1,-2
1461662547916592,-1,-6,11,-10,-5,-2,-2,0
1461662547916592,13,18,11,3,1,0,4,11
1461662547925580,62,11,4,4,4,2,1,-7
1461662547925580,-35,15,-4,5,1,-2,-3,-8
1461662547939591,-33,-23,-27,-14,-6,-2,-6,-6
1461662547939591,9,-2,-3,2,0,-3,-3,0
1461662547946596,-22,-17,-42,-9,-1,1,0,1
1461662547946596,19,6,10,-1,-4,1,2,4
1461662547962605,-10,6,-3,-3,-2,-2,-2,4
1461662547962605,11,-6,9,-4,-1,-1,-3,-2
1461662547964606,12,11,20,8,5,0,1,3
1461662547964606,-7,1,-20,-33,-16,-7,-5,-3
1461662547976649,-7,-4,7,23,10,2,3,1
1461662547976649,19,7,-5,10,10,5,3,1
1461662547983678,-4,5,31,9,0,0,-2,-3
1461662547983678,-23,-10,4,1,-1,-1,-2,-1
1461662548014701,10,-1,-10,-15,-9,-3,-4,2
1461662548014701,15,3,-4,-6,-4,-1,-3,-2
1461662548016659,-13,-4,2,5,1,0,-1,-3
1461662548016659,-30,-11,-5,2,-1,-2,-1,0
1461662548022659,13,9,9,1,0,0,2,1
1461662548022659,25,1,-2,4,1,-3,-3,-5
1461662548023660,-4,-7,3,-4,0,0,-2,-1
1461662548023660,-23,-4,-5,0,1,-2,0,-3
1461662548036659,0,4,11,4,3,1,-2,0
1461662548036659,17,-2,-12,-2,-2,-1,-1,1
1461662548045683,5,-9,-6,-9,-6,-3,0,-2
1461662548045683,-24,-2,1,8,4,-1,1,0
1461662548059673,-3,-1,-3,-3,0,-1,1,3
1461662548059673,19,-4,-5,2,1,-1,1,-1
1461662548065690,3,0,-1,-1,-2,0,0,-1
1461662548065690,-20,2,7,10,0,1,-2,-1
1461662548082702,1,5,4,-1,-1,2,-1,1
1461662548082702,14,-1,-5,-17,-13,-4,-2,0
1461662548088706,-8,-7,-1,0,2,-2,0,-4
1461662548088706,-17,-2,1,7,7,1,1,-1
1461662548095711,2,-3,2,13,5,-1,1,0
1461662548095711,11,4,0,-3,-1,0,0,-2
1461662548104717,-5,-1,2,-2,-6,-4,-2,-6
1461662548104717,-12,-3,-8,-10,-6,-3,-2,-3
1461662548119733,4,-1,2,-1,0,-1,-1,1
1461662548119733,10,0,-1,2,-2,0,-2,-3
1461662548125737,-1,-2,-3,-4,-1,2,-2,2
1461662548125737,-17,-4,-3,0,-1,0,-1,-1
1461662548142772,3,0,1,-3,-1,-2,0,0
1461662548142772,12,-1,1,3,2,-2,-2,-3
1461662548143769,2,4,-1,-2,-4,-2,0,-3
1461662548143769,-13,-1,1,-3,0,-4,-2,-3
1461662548155753,1,0,-4,-3,-1,-4,2,-1
1461662548155753,9,1,-1,1,-1,-2,-1,0
1461662548164766,-3,-5,-2,2,0,0,0,-3
1461662548164766,-9,6,5,0,0,1,-1,0
1461662548179781,1,-2,-1,-4,-2,2,-2,-1
1461662548179781,12,-3,-3,-4,-5,0,-2,1
1461662548185825,2,5,2,4,2,1,-1,1
1461662548185825,-12,-3,0,-7,-3,-3,-1,-1
1461662548202837,-3,-3,-1,16,6,0,0,-1
1461662548202837,5,-2,1,7,4,1,2,-1
1461662548203781,-3,-1,-10,-14,-9,-2,-1,0
1461662548203781,-8,-1,-1,4,0,0,-1,0
1461662548215813,2,2,-1,0,2,0,0,1
1461662548215813,2,0,1,0,2,-2,-1,-3
1461662548224820,-3,-6,-4,-2,2,-2,-2,0
1461662548224820,-7,-3,-7,-12,-5,-4,-3,0
1461662548239834,-1,-3,-8,-9,-7,-1,-3,-1
1461662548239834,3,-3,-3,2,-1,1,1,0
1461662548245835,1,0,2,-4,-3,-1,0,-1
1461662548245835,-7,0,3,1,-1,-1,-1,-1
1461662548262837,-1,-2,4,-1,0,0,-2,0
1461662548262837,6,7,2,-6,-1,-2,-1,0
1461662548263838,2,0,1,3,-1,0,-1,-1
1461662548263838,-2,-1,-2,9,4,2,-1,0
1461662548275846,-1,-1,1,-1,-2,-3,-1,-1
1461662548275846,2,-3,-11,-9,-3,0,-1,-1
1461662548284832,-1,-1,0,-3,-1,-1,0,-2
1461662548284832,-5,-1,-2,1,0,-1,0,0
1461662548299873,1,3,6,-1,-2,-3,-1,0
1461662548299873,2,1,9,9,4,-1,-2,0
1461662548305864,-1,-5,-7,2,1,-1,-2,-1
1461662548305864,-3,-5,-6,-6,-2,1,0,-3
1461662548322875,-2,-1,-3,-6,-3,-2,-1,1
1461662548322875,1,-3,-8,-5,-4,-3,0,1
1461662548324860,-1,3,5,5,0,-1,-1,-3
1461662548324860,-5,0,1,-2,-4,-2,-1,-3
1461662548335871,-5,-3,0,-2,1,-1,0,0
1461662548335871,1,-2,-6,0,1,-2,0,0
1461662548350880,0,3,-1,0,1,-2,-1,-1
1461662548350880,-2,1,-6,-4,-3,-2,-3,-2
1461662548358885,-5,-2,1,-3,-3,-3,-2,-1
1461662548358885,2,0,1,-2,-3,1,-1,-2
1461662548365891,2,-1,1,0,-2,-2,0,0
1461662548365891,-5,-6,-2,-1,-2,0,-1,-1
1461662548382917,0,-2,-4,-7,-2,-2,0,-1
1461662548382917,1,0,3,2,-1,0,-1,-2
1461662548383917,-1,-2,1,2,0,-1,-2,-3
1461662548383917,-2,2,6,0,-1,1,-1,-2
1461662548395951,0,-2,-6,-6,0,2,1,1
1461662548395951,-1,-4,0,5,-3,-1,-1,0
1461662548404917,0,1,-2,2,-3,-2,-2,-2
1461662548404917,-3,-2,5,10,12,1,-1,0
1461662548418966,0,2,-2,-2,-1,0,0,0
1461662548418966,-1,-1,-2,-8,-1,-2,0,-3
1461662548425933,1,2,-2,-12,-6,-1,1,-3
1461662548425933,-5,-1,-1,-3,-5,-4,-2,-1
1461662548442006,1,1,0,4,3,1,-1,0
1461662548442006,1,-2,-1,-4,-1,-2,-1,1
1461662548449011,1,1,-1,-1,-1,-2,-1,0
1461662548449011,-3,-9,-10,-5,-3,-4,-1,0
1461662548455983,-4,-4,-1,-2,-3,-1,-2,-4
1461662548455983,0,-2,-1,-1,0,0,-1,-1
1461662548464989,-1,2,7,4,3,0,0,-1
1461662548464989,2,11,11,0,-2,-2,-1,0
1461662548479000,0,0,-3,-5,1,-1,-2,-1
1461662548479000,-4,-9,-16,2,0,0,0,-1
1461662548486004,3,1,-2,-1,0,0,1,2
1461662548486004,-3,-3,-5,-4,-3,1,-2,-3
1461662548502026,0,3,2,-1,-4,-2,-1,0
1461662548502026,2,5,3,-8,-5,-1,-2,2
1461662548509006,-4,-6,0,18,8,1,-1,0
1461662548509006,-3,-2,-3,-1,2,-2,0,-1
1461662548515997,0,1,3,6,2,-2,-1,0
1461662548515997,0,0,-2,-10,-3,-2,-2,-3
1461662548525002,-3,-3,-6,-4,-2,-2,-4,-3
1461662548525002,0,3,4,5,3,0,0,-1
1461662548539052,-2,-3,-7,1,-4,-1,2,-2
1461662548539052,1,-1,8,5,3,1,1,0
1461662548546056,-3,-12,-18,-8,-2,1,-1,-2
1461662548546056,-3,-4,-4,-1,-3,-2,-2,-2
1461662548562038,-4,-3,-6,-5,-2,-1,-2,-1
1461662548562038,2,2,10,-3,0,-2,0,-3
1461662548569042,2,-2,-1,1,-1,-1,-2,-1
1461662548569042,2,4,3,4,3,-1,-2,1
1461662548576046,1,1,0,-3,-3,-2,0,-1
1461662548576046,1,-4,-6,4,-2,-1,-2,1
1461662548585049,0,12,13,2,-4,-3,-2,0
1461662548585049,-7,-14,-19,-2,-3,-2,-1,-2
1461662548599071,-1,2,1,2,-1,-2,-3,-2
1461662548599071,-4,-6,-5,3,7,0,1,-2
1461662548606061,3,-3,-4,2,0,-1,-1,-1
1461662548606061,1,9,13,-6,-2,-1,1,-1
1461662548630116,-2,7,15,-4,-2,0,-2,0
1461662548630116,-1,-3,-19,3,2,0,2,-1
1461662548632098,-4,-5,-5,-8,-7,-3,-3,-3
1461662548632098,-3,-10,-27,-4,-3,-2,-2,-1
1461662548652131,-4,-13,4,1,-2,-2,1,-1
1461662548652131,4,13,26,-2,-2,0,0,4
1461662548654093,-1,-4,-8,-6,-2,-1,-1,-3
1461662548654093,2,14,19,-1,-4,-3,-2,1
1461662548659115,0,-4,-17,-9,-1,0,-1,1
1461662548659115,-5,-4,7,21,1,-2,-3,-4
1461662548666142,-3,-13,-9,1,4,1,3,0
1461662548666142,-5,-9,-13,1,-1,-1,0,-2
1461662548682144,-3,2,-1,-13,-4,-3,-3,-2
1461662548682144,-1,-1,-4,1,-2,-1,-2,-1
1461662548689148,3,0,5,0,1,0,-2,0
1461662548689148,0,2,7,5,0,1,2,-1
1461662548705145,-2,-5,-11,3,4,-2,1,2
1461662548705145,2,6,-4,-11,-6,-2,-1,0
1461662548707131,-1,-2,-4,-14,-7,-4,-2,-2
1461662548707131,-1,-3,3,18,8,2,11,4
1461662548719155,-2,-7,-23,-10,-6,-1,-6,-1
1461662548719155,-6,-2,14,17,4,1,-2,-6
1461662548726159,3,10,-17,-5,1,1,4,1
1461662548726159,-8,-7,22,-5,-8,-3,-10,-6
1461662548742196,0,0,-3,4,2,4,2,-2
1461662548742196,0,-2,-4,1,1,0,-1,2
1461662548748199,-4,-9,-9,-13,-7,-4,-9,-4
1461662548748199,-3,5,12,4,0,-4,-4,-5
1461662548765213,2,9,27,10,2,0,1,0
1461662548765213,-6,-24,-39,-12,0,-2,0,-2
1461662548766194,2,7,14,4,3,1,5,-2
1461662548766194,-1,-3,-20,-15,-8,-2,-4,-1
1461662548779184,0,6,9,-4,-5,1,-1,0
1461662548779184,1,0,3,4,4,1,2,1
1461662548786188,1,-1,-6,-2,-3,-5,-2,-1
1461662548786188,-4,-3,0,3,4,-1,-1,-1
1461662548802244,-1,2,4,2,1,0,-1,3
1461662548802244,-2,2,4,-11,-8,-4,-1,-1
1461662548808229,-1,-5,-2,3,-1,-1,-9,-2
1461662548808229,0,5,-2,-13,-4,-1,15,0
1461662548825241,-4,-4,-5,0,0,1,-5,1
1461662548825241,3,3,7,7,3,0,-9,-4
1461662548827217,1,-3,11,3,0,0,-6,-1
1461662548827217,-2,-2,0,-7,-1,0,-6,-2
1461662548839249,-6,-17,-38,1,3,0,6,-4
1461662548839249,-3,-7,-14,-3,-4,-4,3,-2
1461662548846255,5,8,10,8,4,-1,-2,-2
1461662548846255,-2,-6,-6,-8,-3,0,1,-1
1461662548862255,1,0,10,0,-1,-2,0,1
1461662548862255,3,7,3,-8,-4,-2,-4,-1
1461662548868247,-3,-5,-11,-6,-4,-1,1,-3
1461662548868247,-3,-2,2,2,-2,-2,-6,0
1461662548885296,-4,1,4,-3,-3,-3,-5,-1
1461662548885296,3,2,0,-2,1,0,1,0
1461662548886273,-2,4,7,-2,-2,-1,1,1
1461662548886273,-1,0,-8,-1,1,0,-2,0
1461662548899307,-2,5,2,0,2,-1,-1,-2
1461662548899307,2,-1,4,-8,-2,-2,2,1
1461662548906284,-1,-1,0,-4,-6,-2,0,-3
1461662548906284,-4,-11,-8,5,4,0,-3,-3
1461662548922301,2,6,8,-9,-12,-3,-2,-3
1461662548922301,3,-3,-2,26,21,7,1,2
1461662548928300,-2,-4,15,-2,1,0,0,-2
1461662548928300,3,13,-2,-17,-5,-2,-3,2
1461662548945362,-3,-2,-7,3,-4,-3,2,-3
1461662548945362,0,0,11,-7,-7,-4,3,-1
1461662548946306,-5,-9,10,25,6,-2,0,-3
1461662548946306,-2,6,-7,1,4,-1,1,1
1461662548958338,2,4,4,-1,-1,-2,0,1
1461662548958338,0,-2,-14,-15,-11,-4,-2,2
1461662548967348,-1,-8,-17,-12,-4,-2,0,-1
1461662548967348,0,-5,3,-3,-5,-1,-2,0
1461662548982332,-1,3,3,0,3,-1,1,-4
1461662548982332,0,-5,-8,-1,-1,-2,-1,-3
1461662548988337,2,1,-1,-8,-3,-1,-1,1
1461662548988337,-2,-3,1,0,-2,0,-2,-4
1461662549004345,-2,-6,1,9,5,0,-3,0
1461662549004345,3,8,3,-1,2,0,0,1
1461662549011349,-3,-6,0,-5,-5,-4,-8,-4
1461662549011349,0,-9,-18,3,5,1,0,-2
1461662549019355,-2,-7,-19,-7,0,0,4,2
1461662549019355,-4,1,30,26,5,1,1,-1
1461662549026374,8,10,-14,-5,-2,1,3,4
1461662549026374,0,11,32,-1,-4,-4,-1,-1
1461662549042368,-3,-14,-3,3,0,-2,-4,1
1461662549042368,-21,-16,-8,-16,-16,-6,-3,-8
1461662549048376,-3,-7,4,23,15,7,3,-1
1461662549048376,-2,-3,-4,1,3,3,9,0
1461662549064449,-1,10,1,-5,1,3,6,5
1461662549064449,2,0,-9,-15,-8,-2,-12,-7
1461662549072427,4,-2,-7,0,-1,-6,-8,-4
1461662549072427,2,6,-4,-3,1,4,16,2
1461662549079438,-1,-5,-21,-6,-2,-2,-2,1
1461662549079438,0,6,22,0,-2,-1,27,1
1461662549086442,1,3,-15,-6,-6,-5,-4,8
1461662549086442,-5,3,31,6,-2,-8,-43,-14
1461662549101466,-3,-10,-21,1,2,-6,-19,-7
1461662549101466,5,0,-6,12,4,0,-4,4
1461662549108451,7,38,-13,-22,-7,1,32,1
1461662549108451,-4,-34,-17,-1,3,8,26,11
1461662549125462,-8,7,50,-4,-1,4,-13,-6
1461662549125462,9,4,-8,16,4,-2,-9,-2
1461662549126464,-5,-22,-10,-3,3,1,8,2
1461662549126464,-6,5,-9,0,0,-2,-12,-3
1461662549138487,-4,5,-9,-8,0,4,11,-5
1461662549138487,8,14,18,-15,-4,0,5,3
1461662549147494,-3,-12,-9,7,-5,-5,-8,-4
1461662549147494,6,4,-16,-2,0,-1,0,6
1461662549161506,-8,-7,-10,4,1,2,35,4
1461662549161506,-3,-7,-16,-16,-5,1,-32,2
1461662549168507,5,-12,-10,-6,-4,-6,-25,-16
1461662549168507,-3,3,24,-3,-7,-15,-13,-7
1461662549185524,-10,16,26,12,-2,-1,0,5
1461662549185524,-8,-7,12,1,3,5,14,7
1461662549186506,56,9,-2,-13,-5,2,-12,-4
1461662549186506,11,-8,2,19,6,-2,-14,-6
1461662549198554,-70,25,0,-16,-11,-4,5,-5
1461662549198554,-52,-35,-29,0,4,3,9,-1
1461662549207522,47,6,-1,-14,-9,3,5,3
1461662549207522,26,-14,-8,6,3,2,10,-5
1461662549221545,-39,18,6,8,2,1,7,-5
1461662549221545,-34,16,10,13,2,-3,-18,-10
1461662549230595,47,-2,30,5,1,1,5,4
1461662549230595,41,5,-49,-17,-5,6,32,7
1461662549245582,-47,-13,5,-10,2,2,-38,-3
1461662549245582,-40,-6,0,-1,-6,-15,-20,-11
1461662549246579,39,5,5,5,-7,-7,5,2
1461662549246579,47,9,10,1,-2,5,-7,3
1461662549258587,-39,-22,-21,0,2,-8,-15,-6
1461662549258587,-37,-4,-52,-23,-9,0,9,1
1461662549267565,27,-1,27,-9,7,3,1,13
1461662549267565,21,20,48,22,-11,-1,43,16
1461662549281603,-27,-21,-14,17,20,6,-19,1
1461662549281603,-23,6,2,9,-4,-9,-19,-16
1461662549288608,17,6,-3,8,14,1,-2,0
1461662549288608,-6,-37,-41,-44,-15,8,12,-5
1461662549304606,-15,36,21,53,5,-4,-16,-7
1461662549304606,-5,17,18,8,5,-11,-10,5
1461662549306594,10,-30,-1,15,3,2,17,6
1461662549306594,12,33,1,-18,-2,4,-12,-4
1461662549318616,-18,-48,-49,-26,6,9,53,6
1461662549318616,-9,-3,-17,-20,-13,2,-20,-9
1461662549327606,11,15,12,9,-4,-9,-44,-15
1461662549327606,3,-9,34,9,1,1,44,0
1461662549341655,-15,-3,25,0,-1,20,104,46
1461662549341655,9,-2,10,0,-3,-10,-67,11
1461662549348660,12,-9,-40,-49,-21,-28,-70,-19
1461662549348660,-3,-5,-49,22,13,-12,-70,-27
1461662549365635,-14,8,29,27,-4,-14,-27,-23
1461662549365635,2,-5,-10,-20,-7,5,29,8
1461662549372639,5,11,0,31,19,17,24,10
1461662549372639,-13,18,-11,-27,-19,-10,-10,2
1461662549378672,-7,-19,6,-20,-1,3,9,-4
1461662549378672,-1,12,32,31,3,11,36,5
1461662549387657,4,38,15,-5,-1,5,11,2
1461662549387657,-16,10,-1,48,33,10,57,8
1461662549401663,-7,-5,13,6,2,5,-22,-11
1461662549401663,9,-15,-24,-22,-9,-3,-28,-24
1461662549408681,5,53,-4,19,9,3,-11,3
1461662549408681,-21,-30,2,-9,-6,-1,60,10
1461662549424693,-10,-6,-11,-61,-34,-14,-27,23
1461662549424693,-47,14,0,-2,-11,-30,-65,-25
1461662549431698,-3,-61,-30,19,7,-14,-13,-12
1461662549431698,3,47,26,-6,-6,-8,-66,-21
1461662549438748,-5,8,31,-13,-6,10,13,-8
1461662549438748,1,8,-22,-24,-6,7,74,25
1461662549447710,0,-8,-8,-17,-21,-3,-4,7
1461662549447710,-42,-43,3,41,19,-12,-15,-25
1461662549461731,-6,9,-33,-40,-7,-18,-37,-13
1461662549461731,13,-10,52,8,-9,4,20,14
1461662549468735,-3,-64,-13,0,6,12,11,16
1461662549468735,-10,-2,-30,-18,5,1,-31,-14
1461662549484733,-9,19,12,61,19,0,-21,-10
1461662549484733,9,-5,-17,-34,-10,9,37,7
1461662549490723,3,-43,5,16,10,24,65,7
1461662549490723,-5,-34,37,24,-5,-18,-13,12
1461662549498788,-10,17,-17,0,11,14,65,-8
1461662549498788,-9,17,-26,3,11,4,-65,-12
1461662549507737,-3,-77,27,-31,-19,-23,-31,-4
1461662549507737,-42,-2,-5,-51,-30,-6,-61,-6
1461662549521761,-2,-38,-26,11,-6,-25,-11,14
1461662549521761,-13,82,19,-4,-1,-9,-12,11
1461662549528764,-6,-57,10,4,-3,-3,-34,-30
1461662549528764,-16,-113,26,19,8,11,26,-2
1461662549544821,-9,-11,-16,-40,-17,7,-23,-11
1461662549544821,15,14,-26,53,44,23,49,17
1461662549551783,-12,10,22,13,1,-3,8,12
1461662549551783,46,127,-12,70,65,26,2,2
1461662549567779,57,103,26,-32,-20,-5,27,-8
1461662549567779,5,103,-11,-29,-6,24,80,25
1461662549569811,-28,40,3,30,16,1,-47,-21
1461662549569811,-4,-13,2,-43,-28,-15,82,25
1461662549581847,10,-18,4,4,5,14,-29,8
1461662549581847,35,-88,-9,-7,-4,-25,-33,3
1461662549588852,-60,-83,-36,-36,-27,-25,-3,-13
1461662549588852,-26,-8,-3,-16,-10,-2,-55,-15
1461662549604832,10,-24,12,-38,-25,0,51,13
1461662549604832,14,-35,-12,50,24,-4,-20,23
1461662549610836,-24,-53,19,-1,0,-1,-30,-8
1461662549610836,-10,-3,-15,-22,3,-8,2,-17
1461662549627849,9,11,18,42,-5,8,25,-17
1461662549627849,5,-31,-3,9,-15,-1,-6,6
1461662549628821,1,-27,0,20,28,3,0,14
1461662549628821,-15,-3,25,-8,-21,2,12,-12
1461662549641846,10,10,-30,10,24,13,2,15
1461662549641846,3,11,16,-44,-17,0,-11,-9
1461662549648852,21,-43,6,6,-8,-5,13,-2
1461662549648852,18,7,7,-69,-32,23,93,-28
1461662549664844,-25,38,0,77,33,6,-60,12
1461662549664844,-18,10,3,13,-3,-39,-51,38
1461662549670863,16,-26,-56,-46,-18,-3,-41,-5
1461662549670863,3,3,-6,13,9,0,26,-14
1461662549687901,4,53,36,-44,-43,1,3,10
1461662549687901,17,21,-9,2,40,12,-38,18
1461662549688862,-8,-20,-13,-19,-10,-26,11,-3
1461662549688862,8,17,4,14,-21,-5,-22,-31
1461662549709906,-24,42,3,32,25,-9,-34,9
1461662549709906,15,18,10,-53,-22,-7,53,15
1461662549711879,24,-16,34,-62,-49,20,-39,-9
1461662549711879,-9,22,12,62,103,37,17,-40
1461662549732912,-12,34,-40,-39,-16,-41,-27,-4
1461662549732912,-21,4,-22,4,11,5,-2,2
1461662549733915,12,-9,-8,-51,-17,22,127,31
1461662549733915,-1,14,-15,-33,-31,-6,-71,-38
1461662549747923,-14,31,34,22,5,-3,-8,20
1461662549747923,-7,3,-12,-22,-18,4,30,24
1461662549753909,16,-5,12,28,12,-1,6,-17
1461662549753909,-9,25,-25,-6,-16,-19,-29,-4
1461662549760925,-12,22,-25,-32,-12,-21,-27,-6
1461662549760925,19,-1,9,-13,-10,20,26,14
1461662549769920,-47,-1,9,-15,-9,13,20,-31
1461662549769920,8,20,29,106,47,-26,-108,-8
1461662549784969,-2,20,-68,-84,-27,-47,-68,-13
1461662549784969,-3,3,5,26,3,25,98,20
1461662549792949,19,2,31,-52,-25,21,-3,-5
1461662549792949,-41,16,21,37,11,-22,-45,-7
1461662549807947,-9,21,-3,3,-2,4,11,-6
1461662549807947,24,3,-38,-66,-30,-1,50,23
1461662549813951,-31,1,15,81,50,30,-21,-33
1461662549813951,13,-14,-17,-57,-28,-20,-4,0
1461662549820956,5,6,45,100,58,17,-4,11
1461662549820956,-26,-8,63,-16,-12,13,56,10
1461662549829962,18,6,-50,-40,-12,-16,-53,-11
1461662549829962,-8,28,-25,-21,-23,-19,26,25
1461662549844989,-9,14,58,10,-4,3,-40,-9
1461662549844989,8,7,-36,-11,-3,-17,5,11
1461662549851035,17,1,17,43,20,-8,-4,-16
1461662549851035,-4,25,1,-13,2,22,-28,-18
1461662549868004,-8,14,-24,-128,-92,-36,27,1
1461662549868004,21,-4,38,99,81,6,-12,27
1461662549869003,-10,4,-13,-58,-13,10,90,15
1461662549869003,-30,12,-11,2,13,26,-8,-32
1461662549881056,17,23,3,-30,-2,6,-49,-19
1461662549881056,-39,5,-81,65,9,-29,-128,-42
1461662549890020,23,7,3,43,31,-11,22,30
1461662549890020,-3,16,-1,-82,-43,21,54,0
1461662549904015,-24,12,0,-18,-6,4,58,12
1461662549904015,30,1,27,34,4,-9,-75,-33
1461662549911031,14,6,7,46,16,-14,82,53
1461662549911031,-28,18,-60,-18,0,51,119,11
1461662549928044,-8,14,-12,10,7,-23,-91,-55
1461662549928044,4,-1,38,-44,-45,-64,-61,15
1461662549929031,1,8,-14,-6,-13,-11,1,0
1461662549929031,25,14,33,9,14,26,74,15
1461662549941099,-1,10,-34,6,-7,-6,-4,-17
1461662549941099,22,2,15,-4,-8,-4,-39,13
1461662549950055,6,8,-20,-37,2,-6,-39,-19
1461662549950055,-15,16,23,23,11,-11,-12,-2
1461662549964116,-1,13,-1,50,31,38,56,11
1461662549964116,-20,-1,50,-22,-19,8,8,-11
1461662549971062,11,7,-40,25,30,14,-4,0
1461662549971062,-19,8,-13,-37,-22,-19,-48,-26
1461662549988088,-8,13,-22,-12,12,21,48,33
1461662549988088,6,-1,18,-42,-18,2,38,-7
1461662549989076,-10,8,4,-12,-12,5,-86,-22
1461662549989076,1,11,-3,5,-14,-42,-109,-2
1461662550001141,-4,10,17,24,6,-17,94,24
1461662550001141,10,0,-21,-18,13,27,-42,5
1461662550010089,1,9,2,-8,-31,-49,-82,-13
1461662550010089,-6,12,-8,-3,-3,7,15,25
1461662550024098,-5,12,1,2,4,3,-39,-29
1461662550024098,-1,-3,-6,-53,-18,12,41,-11
1461662550039175,5,7,4,-5,0,17,40,-16
1461662550039175,-5,17,32,73,56,6,7,1
1461662550047174,1,11,-17,15,13,5,26,28
1461662550047174,1,1,-8,-24,-18,-3,-9,-8
1461662550049116,2,10,33,32,29,10,10,1
1461662550049116,-16,17,-39,-68,-36,-18,1,-5
1461662550061126,5,9,18,48,18,6,-24,5
1461662550061126,2,-8,0,20,21,13,101,25
1461662550070133,3,6,5,-18,-5,13,-14,-17
1461662550070133,-6,15,20,5,-14,-55,-34,14
1461662550084141,-5,15,-10,-5,3,38,-8,17
1461662550084141,-11,-1,-28,-6,-12,-45,11,3
1461662550091149,4,9,6,4,-16,12,21,11
1461662550091149,-18,10,4,-5,-1,49,-22,-31
1461662550107174,2,7,-6,-18,-10,-21,12,-5
1461662550107174,22,-4,-5,8,8,28,-5,-14
1461662550109159,-12,9,6,10,-10,-42,14,8
1461662550109159,4,12,-56,-86,-36,-19,-7,5
1461662550121179,10,-4,56,72,44,-2,-11,-4
1461662550121179,11,-17,-14,22,20,6,-5,-13
1461662550130187,1,6,7,15,2,0,8,4
1461662550130187,-25,3,-6,6,-4,2,-6,19
1461662550144195,7,-3,1,-44,-20,4,1,0
1461662550144195,16,-13,-6,-5,-5,-3,-14,-23
1461662550151200,-23,7,9,7,-1,5,6,5
1461662550151200,0,11,-7,12,6,10,12,24
1461662550167240,18,-7,-3,-4,3,13,64,19
1461662550167240,21,-11,4,16,4,1,-81,-23
1461662550169202,-28,8,-26,-32,-28,-44,-62,-8
1461662550169202,-21,2,10,15,3,-26,-9,7
1461662550181249,2,-6,-1,-1,2,33,-17,0
1461662550181249,27,-9,-38,-77,-40,-19,-6,-25
1461662550190218,27,14,23,75,27,25,26,-9
1461662550190218,-52,3,11,6,17,-1,2,12
1461662550204243,-28,-18,-14,-8,-8,-14,-5,-8
1461662550204243,64,-12,17,38,21,16,29,-17
1461662550211247,14,10,-3,-28,-6,-2,-10,-4
1461662550211247,-46,-4,-9,-3,-18,-8,15,18
1461662550227260,-24,-13,-12,5,3,-4,-10,-3
1461662550227260,34,-13,5,-7,-12,-5,-7,-13
1461662550235249,22,10,16,3,14,2,9,-3
1461662550235249,-32,-1,6,13,5,8,-1,21
1461662550241311,-29,-16,0,-25,-10,-16,2,6
1461662550241311,36,-12,-12,7,2,23,27,-1
1461662550250259,19,12,-22,-12,-4,6,-3,-6
1461662550250259,-28,1,7,-5,-4,-2,-7,14
1461662550264329,-31,-13,-11,-7,-12,-15,-44,-9
1461662550264329,27,-6,14,17,10,-10,12,-21
1461662550271273,13,9,-9,-6,4,24,23,6
1461662550271273,-30,-2,-2,-40,-25,-17,-16,5
1461662550287288,-8,-14,9,48,19,-10,-10,-15
1461662550287288,19,-6,-2,8,11,5,6,-5
1461662550289289,6,11,6,-22,-11,1,19,3
1461662550289289,-18,-3,10,25,12,-3,6,9
1461662550301353,-10,-11,-4,-13,-1,-6,-1,-2
1461662550301353,10,-6,-1,3,9,5,-8,-15
1461662550310302,-3,10,4,9,6,2,-3,3
1461662550310302,-16,-6,-10,-8,-6,2,2,5
1461662550324340,-1,-6,4,-12,-7,-4,-2,-4
1461662550324340,6,-9,0,4,1,-9,-8,-10
1461662550331345,3,6,-11,-14,-12,-7,-6,0
1461662550331345,-7,-3,10,10,4,11,17,13
1461662550347358,-10,-9,-14,-11,-5,9,8,-6
1461662550347358,3,-3,-3,0,-3,18,-13,-12
1461662550353347,-6,14,-6,-7,-3,-13,1,-3
1461662550353347,-11,-5,-7,-2,1,17,16,15
1461662550361352,-6,-7,-1,-2,-5,-5,-11,-1
1461662550361352,2,-2,8,-6,-8,-15,-21,-16
1461662550370343,-2,16,-5,-7,3,2,-2,-3
1461662550370343,-10,-6,8,11,5,-10,-3,4
1461662550384412,-7,-27,-18,-27,-18,-13,0,-1
1461662550384412,6,-8,-2,13,7,-1,0,3
1461662550391417,0,17,20,5,8,1,-7,6
1461662550391417,-8,-15,18,5,4,-2,3,3
1461662550407370,-5,-22,-27,-8,-2,2,-2,-3
1461662550407370,5,18,-6,-10,-10,-4,-2,-7
1461662550413433,-3,68,-13,-7,-4,-5,1,4
1461662550413433,-7,-11,-1,2,1,4,0,0
1461662550421394,-5,-36,16,-4,-4,3,8,1
1461662550421394,-1,-20,4,-2,-3,-16,-14,-22
1461662550430398,-3,83,-18,-3,-2,-7,-4,3
1461662550430398,-5,12,2,-2,2,26,1,1
1461662550444458,-7,-122,-8,-2,1,-9,-4,-7
1461662550444458,1,14,7,3,-1,5,9,6
1461662550451463,-3,-17,3,-3,-6,4,-2,2
1461662550451463,-6,-90,-7,-2,-1,-5,-7,0
1461662550467442,0,-128,-2,3,4,1,2,-1
1461662550467442,-3,54,13,3,5,-3,2,-2
1461662550473445,-3,95,-9,-9,-7,-4,-6,2
1461662550473445,-6,11,-4,1,-1,-6,-3,6
1461662550490430,-1,86,4,1,-1,-1,-3,-5
1461662550490430,0,54,-3,-3,-2,-4,-3,-6
1461662550491446,-4,127,4,1,-2,-1,-1,0
1461662550491446,-7,85,1,-5,-1,-5,-2,0
1461662550504454,-1,15,14,0,-2,2,-1,-6
1461662550504454,0,-2,6,7,7,1,2,-7
1461662550511458,-5,102,-8,0,1,1,1,8
1461662550511458,-4,5,1,1,-2,-5,-5,0
1461662550526493,-1,32,14,8,0,-2,-4,-5
1461662550526493,0,22,-18,-8,-8,-2,3,-3
1461662550533498,-3,-58,0,-3,-4,0,0,2
1461662550533498,-5,-3,-11,-5,-3,-7,-3,0
1461662550550507,0,76,5,-3,-2,4,1,-3
1461662550550507,0,25,8,4,4,5,6,0
1461662550551485,-2,-75,5,1,2,-1,0,2
1461662550551485,-3,-105,-22,-13,-6,-1,1,1
1461662550564484,-3,-100,-2,3,1,3,3,-3
1461662550564484,1,-75,11,1,3,1,3,2
1461662550571493,-7,-87,-21,-4,-2,-1,-2,-1
1461662550571493,-4,-33,10,4,3,4,-1,2
1461662550587498,-4,-20,5,-3,-1,0,0,-4
1461662550587498,-3,10,-1,-1,-1,0,-2,-1
1461662550593520,-3,23,5,4,2,0,-1,2
1461662550593520,-5,10,-6,-1,0,-1,-1,0
1461662550609513,2,5,-8,1,0,-1,-2,-2
1461662550609513,-5,48,20,-2,-4,-2,-2,-3
1461662550617520,-7,16,0,1,1,0,0,3
1461662550617520,-2,4,-2,-3,-2,-3,-1,2
1461662550624535,4,9,8,3,-1,-1,-3,-3
1461662550624535,-7,-7,-18,-14,-5,-6,-2,-6
1461662550631567,-9,-4,-2,-6,-5,-2,-2,1
1461662550631567,-3,-2,14,16,4,-2,-1,1
1461662550646578,2,5,-4,3,2,-1,-2,-2
1461662550646578,-6,-11,-6,4,2,1,1,0
1461662550655546,-10,-6,6,-1,-2,0,-2,0
1461662550655546,-2,-2,0,-11,-5,-2,0,-1
1461662550669594,0,-6,-2,-2,-3,-3,-2,-2
1461662550669594,-5,-5,-7,-4,-2,2,-1,-1
1461662550671556,-11,-3,-15,-6,-4,-2,-3,-2
1461662550671556,-4,-5,4,3,2,1,1,2
1461662550684628,-1,-4,-3,-3,-1,1,3,1
1461662550684628,-6,-1,-7,-2,-1,-4,0,-3
1461662550691633,-7,8,8,5,0,0,0,1
1461662550691633,-5,4,7,2,-2,-3,-2,-2
1461662550706584,3,7,8,-5,-3,0,2,-1
1461662550706584,-5,7,-3,3,1,-2,-1,-1
1461662550713588,-9,-3,0,1,3,1,-1,0
1461662550713588,-4,-5,-12,1,0,-4,0,1
1461662550729600,6,-5,-8,-10,-3,-3,0,-1
1461662550729600,-14,-11,10,6,-4,-4,-3,-6
1461662550736604,-34,-5,-25,-3,5,0,-4,0
1461662550736604,-2,-1,3,-6,-2,2,-3,1
1461662550744607,22,-3,1,13,1,1,0,-3
1461662550744607,-17,0,7,-4,1,0,0,-3
1461662550751613,-47,-1,0,1,-4,-4,-3,-3
1461662550751613,23,2,-3,1,0,-1,-1,4
1461662550766623,42,4,-6,-7,-2,0,1,2
1461662550766623,-40,7,4,4,0,-1,-1,-3
1461662550773628,-64,2,-1,-4,-2,-4,-3,-2
1461662550773628,31,-2,-4,-3,-4,-3,-3,5
1461662550789715,60,2,2,2,0,1,-1,1
1461662550789715,-24,1,-4,-3,0,1,-2,-3
1461662550791676,-62,-3,6,-1,-2,-1,-3,-5
1461662550791676,13,-11,-6,-4,-2,-3,0,0
1461662550803686,54,0,-5,1,2,0,2,2
1461662550803686,-11,-5,-11,0,2,-1,-2,-6
1461662550812692,-49,-3,2,-6,-6,-3,-3,-3
1461662550812692,14,1,9,1,-6,0,-3,3
1461662550826718,39,3,7,7,4,1,1,1
1461662550826718,-13,-6,-29,-3,2,1,0,-2
1461662550833735,-34,1,15,4,1,-1,-1,-1
1461662550833735,7,-1,-1,-18,-7,-3,-1,1
1461662550849747,18,3,14,17,8,2,0,0
1461662550849747,-5,7,13,7,-4,-3,-2,-2
1461662550851748,-17,-6,-7,1,-1,-2,-1,0
1461662550851748,5,-4,-11,-1,3,1,0,2
1461662550863757,9,-2,-3,-13,-6,-2,-1,-1
1461662550863757,-4,1,1,-2,-2,-2,-1,-2
1461662550872763,-15,-4,-9,-3,-2,-2,-3,-1
1461662550872763,0,0,1,2,0,-3,2,1
1461662550886775,10,-3,-8,-6,-2,-1,1,-1
1461662550886775,0,2,7,1,1,0,-1,-4
1461662550893763,-15,-1,3,-2,-2,-1,-2,-5
1461662550893763,0,-3,-3,3,1,1,-3,1
1461662550909823,9,-1,-2,1,1,-2,-2,-1
1461662550909823,-2,2,-2,-3,-2,-1,1,-1
1461662550911765,-18,-5,-4,-1,-1,-2,-2,-3
1461662550911765,2,-2,0,0,-3,-2,-1,0
1461662550923772,13,-1,-9,-3,3,0,0,1
1461662550923772,-5,-4,-5,-2,-2,-2,-4,-2
1461662550932776,-17,-2,16,3,-2,-1,-1,-1
1461662550932776,5,2,3,8,4,1,0,-1
1461662550946802,7,-6,-14,-6,-3,-1,-1,-2
1461662550946802,-12,-6,-7,-6,-2,-2,1,-2
1461662550953820,-9,2,-3,-1,0,0,1,1
1461662550953820,5,-5,3,0,-2,-2,1,-1
1461662550969832,10,5,-2,-8,-4,-2,-1,1
1461662550969832,-5,0,8,-2,-4,0,-3,-2
1461662550971833,-9,-2,-10,-1,1,-1,-1,1
1461662550971833,3,-4,-5,0,1,-1,-2,1
1461662550983828,4,-1,2,2,-2,-2,-2,-2
1461662550983828,-4,-2,-7,-2,-2,-1,-2,0
1461662550992818,-8,9,5,-3,-6,-4,0,0
1461662550992818,-1,-8,-10,-5,-2,-2,-1,-3
1461662551006844,9,-6,-3,-1,-1,0,-1,-3
1461662551006844,-3,-1,0,-1,-2,-1,0,-5
1461662551013848,-10,-3,0,-1,-1,-1,-2,-3
1461662551013848,3,0,-6,4,2,0,0,-2
1461662551029860,7,-2,5,-3,-2,-3,0,3
1461662551029860,-3,-5,-4,-3,-2,0,-2,-2
1461662551031861,-8,-3,1,-2,-2,0,-2,-1
1461662551031861,6,4,6,0,1,0,-2,2
1461662551043866,-2,-9,-4,-7,-1,-3,-2,-2
1461662551043866,-3,3,4,3,-2,0,0,-2
1461662551052876,-4,-2,7,8,5,1,1,1
1461662551052876,-2,-7,-6,-3,-3,-2,-1,-1
1461662551066883,4,6,2,16,7,2,1,1
1461662551066883,-5,-4,5,-2,1,-3,-1,-2
1461662551073878,-3,9,4,-4,-2,0,-1,-1
1461662551073878,2,1,7,-4,-1,0,-1,0
1461662551089900,5,2,-5,-4,-3,-1,-1,-2
1461662551089900,-2,-2,-11,-14,-3,-3,-1,-2
1461662551091901,-9,-4,2,12,-1,-3,-2,-2
1461662551091901,3,5,5,5,3,0,-1,2
1461662551103898,5,0,3,-1,-1,0,0,0
1461662551103898,0,3,-1,-4,-1,0,-2,-3
1461662551112916,-4,-2,-11,-7,-1,-4,-3,-2
1461662551112916,-2,-6,1,-1,-3,-2,-1,0
1461662551126914,1,0,5,-6,-4,0,-2,-2
1461662551126914,1,-4,-2,1,-4,0,0,0
1461662551133958,-4,0,4,-1,1,1,1,-1
1461662551133958,-4,-5,-13,-3,0,0,-1,-2
1461662551149969,1,1,8,0,2,1,-1,-2
1461662551149969,0,-9,-21,0,1,1,-1,-2
1461662551151945,-5,3,16,0,-3,-4,-1,1
1461662551151945,2,0,-22,-2,-2,-4,-2,2
1461662551163952,4,-2,-4,-4,-3,2,1,1
1461662551163952,-1,-9,6,4,4,-1,-2,-2
1461662551172958,-3,7,7,1,3,0,-1,-3
1461662551172958,-3,7,6,-3,0,-1,-2,0
1461662551186973,-1,-4,-4,-1,-4,-4,-2,-3
1461662551186973,0,1,0,-4,-5,-1,0,-2
1461662551201023,-8,-9,-12,-3,-2,-2,-2,1
1461662551201023,-3,2,17,2,1,-1,0,1
1461662551209984,2,2,-3,1,1,-2,-3,1
1461662551209984,1,-5,-3,-1,-2,0,-2,-3
1461662551211978,-5,-2,-8,-5,-4,-1,-1,0
1461662551211978,-1,4,-8,-1,0,0,-1,-1
1461662551223994,1,-10,5,1,-2,-1,1,-2
1461662551223994,0,-9,-7,5,3,1,0,-2
1461662551233000,-7,-1,-5,0,0,-1,-2,0
1461662551233000,0,0,7,11,1,-1,0,-2
1461662551247148,6,7,4,-6,-5,-2,0,1
1461662551247148,4,5,1,-10,-7,-4,-1,1
1461662551254094,-4,-5,-9,13,4,-1,1,-1
1461662551254094,-1,0,6,-4,1,-1,0,-2
1461662551269163,3,1,8,1,-2,2,-2,-3
1461662551269163,0,-1,-9,-4,-4,0,-1,-2
1461662551276122,-4,-1,-8,-6,-2,-2,-2,-2
1461662551276122,-5,-6,-5,-5,-2,-4,-2,-2
1461662551284191,-1,-7,-4,1,2,-2,0,-2
1461662551284191,3,9,15,-5,-3,-2,-2,-2
1461662551293124,-4,0,-2,-6,-4,1,1,-1
1461662551293124,0,-5,-4,4,1,2,0,1
1461662551307157,1,-5,-17,-3,0,0,0,0
1461662551307157,2,7,15,2,1,-2,-2,-1
1461662551314144,-6,-4,4,5,1,2,0,-2
1461662551314144,-1,1,-4,-3,-3,-1,-1,-1
1461662551329173,4,3,-5,-2,-3,-1,0,0
1461662551329173,0,-4,-6,1,2,-3,-2,-1
1461662551336177,-2,2,4,-4,-2,-3,-1,0
1461662551336177,-2,-1,1,-2,-1,0,1,-3
1461662551344165,2,2,1,0,2,-1,-3,-2
1461662551344165,-1,-4,-15,-3,-4,-2,-2,-1
1461662551353176,-6,-3,9,-5,-5,0,-2,-3
1461662551353176,1,-2,4,0,-1,0,1,0
1461662551367214,3,0,6,0,-1,1,0,2
1461662551367214,1,-7,-16,-6,-2,-2,-2,-2
1461662551374193,-6,9,16,7,5,2,2,-1
1461662551374193,-1,-10,-17,-7,-4,0,-2,-1
1461662551389229,3,3,-3,-2,-4,-4,-2,-1
1461662551389229,-5,-10,6,9,3,1,-2,-2
1461662551396234,-6,-1,-7,-11,-8,-3,-2,-2
1461662551396234,-2,4,9,-1,-2,0,0,-1
1461662551404215,1,-8,-29,2,4,0,-1,-1
1461662551404215,-3,4,28,3,-3,-2,0,-1
1461662551413260,-3,-3,-6,0,2,0,-1,0
1461662551413260,0,-4,3,-4,-2,0,0,-2
1461662551427229,5,4,-7,-6,2,-3,-1,-4
1461662551427229,3,12,1,0,1,-2,-2,-2
1461662551434257,-8,-13,-10,-2,-2,-3,-1,-1
1461662551434257,2,-2,-13,-1,-1,-1,0,3
1461662551449296,-4,-2,-3,-4,-2,0,-1,2
1461662551449296,1,2,4,-2,-5,-3,-2,-4
1461662551456269,-5,-6,-4,-2,-3,-2,0,-1
1461662551456269,3,5,-2,3,-1,-1,0,3
1461662551464273,1,-3,9,8,2,0,-1,-3
1461662551464273,0,-1,-5,-3,-3,-1,-1,-1
1461662551473258,-4,0,-5,-5,-4,-1,-2,2
1461662551473258,-4,6,-1,0,-1,-3,-2,-2
1461662551487260,7,-2,29,6,2,1,0,1
1461662551487260,-4,1,-5,0,1,1,-1,-2
1461662551493267,-5,-1,-5,-7,-1,0,-2,-3
1461662551493267,-8,-11,-14,-4,-4,-2,-3,-2
1461662551509290,5,9,12,3,-1,0,0,0
1461662551509290,4,-3,-5,2,0,0,-1,0
1461662551516279,-1,2,4,3,0,0,-2,-1
1461662551516279,0,9,3,-5,-3,0,0,-2
1461662551532320,-2,-11,-16,-6,-4,-3,-2,-3
1461662551532320,0,-3,1,2,0,-1,0,-2
1461662551534322,-5,5,6,-7,-4,-3,-3,-1
1461662551534322,-1,0,2,9,4,1,0,0
1461662551547302,4,-1,1,1,1,-1,-1,-1
1461662551547302,2,-1,-11,-6,-3,-1,0,-1
1461662551553306,-6,-8,-12,4,1,-1,-1,1
1461662551553306,-3,-5,7,-9,-3,-3,-1,-1
1461662551569337,5,6,-5,-2,-2,-1,0,1
1461662551569337,2,9,6,-1,-2,-2,-1,-1
1461662551576343,-6,-10,-7,-1,1,0,1,-2
1461662551576343,-3,1,2,4,0,0,0,-2
1461662551592394,-1,-11,-14,-3,-3,-2,-2,-1
1461662551592394,7,2,-4,-5,-4,-2,0,-2
1461662551594336,-7,-10,-10,-1,1,-1,1,-1
1461662551594336,-4,-1,2,2,1,-2,-4,-1
1461662551607357,5,15,21,-5,-4,-2,0,-1
1461662551607357,0,-12,-7,3,1,0,0,0
1461662551613406,-6,4,1,-2,-1,1,-1,-3
1461662551613406,-2,-7,-14,6,2,1,0,-2
1461662551629372,2,-3,-10,-4,-3,-2,-2,-2
1461662551629372,1,-3,9,-3,0,0,1,2
1461662551636423,-4,10,1,-2,-2,-2,1,2
1461662551636423,-3,2,5,-4,-2,0,-1,-1
1461662551652438,1,-3,5,-3,-4,-3,-5,-3
1461662551652438,5,-2,-3,6,3,0,-1,0
1461662551654379,-7,-4,6,1,-1,-4,-3,-3
1461662551654379,-2,4,-3,-1,3,-3,-1,-1
1461662551667420,1,-7,-9,2,2,1,1,-1
1461662551667420,3,-4,-3,-4,-1,-1,-2,-1
1461662551673420,-1,4,2,2,1,0,0,0
1461662551673420,-5,1,-1,0,-3,-3,-1,1
1461662551689432,3,-4,-4,-1,-3,-2,0,1
1461662551689432,1,-6,13,3,1,-3,-3,-3
1461662551696437,-3,3,-21,0,1,-2,0,0
1461662551696437,-10,-8,-17,-4,-2,0,-1,-1
1461662551712433,1,-4,6,1,0,0,-1,-2
1461662551712433,11,7,-12,-11,-5,0,-1,-1
1461662551714421,-7,-9,-1,6,2,1,0,1
1461662551714421,-3,1,12,5,0,1,0,3
1461662551727489,4,3,-1,0,0,-2,-1,-4
1461662551727489,-2,-4,-4,-4,-5,-2,-3,-4
1461662551733493,-2,4,7,-4,-1,0,-1,1
1461662551733493,-1,-9,-9,-5,-1,-1,1,-1
1461662551749503,3,5,14,1,-2,0,0,1
1461662551749503,2,-1,0,0,2,-3,-2,-1
1461662551756464,-4,0,-2,1,2,0,-2,0
1461662551756464,-2,-2,-2,2,0,-2,-1,0
1461662551772490,3,-6,-8,-3,-2,-3,0,-2
1461662551772490,-3,-1,0,-2,-1,0,-2,-4
1461662551775471,-5,7,1,2,0,2,-1,-1
1461662551775471,-7,-2,5,-5,-7,-2,-3,-1
1461662551787474,7,5,13,11,9,1,1,2
1461662551787474,4,-6,-9,-1,-1,-1,2,0
1461662551793505,-7,1,10,-6,-5,-1,-1,-1
1461662551793505,-8,-6,-19,-8,-4,-3,-1,-2
1461662551809492,1,-2,2,-2,0,0,-3,-1
1461662551809492,2,-2,-1,3,-1,0,2,0
1461662551816494,-5,-2,3,-1,-1,-2,-3,-1
1461662551816494,-1,2,15,0,1,0,1,-2
1461662551832505,1,-5,-12,-10,-6,-2,-1,-1
1461662551832505,2,4,7,7,1,-2,-1,-2
1461662551834507,-5,-1,1,-3,-5,-3,-1,0
1461662551834507,1,9,9,1,0,0,1,1
1461662551847515,1,-6,-11,-4,-2,-1,0,-2
1461662551847515,2,0,-4,-9,-5,-1,-4,-2
1461662551853518,-9,-9,-16,5,5,0,0,-1
1461662551853518,-1,6,18,-1,-3,-2,0,-2
1461662551869530,4,3,7,10,4,0,0,-1
1461662551869530,-2,-6,-18,-2,1,-2,-1,0
1461662551876535,-8,-3,0,-1,-4,1,-3,0
1461662551876535,-4,1,6,-2,-2,-1,-2,0
1461662551892547,5,2,-4,-5,-6,-2,-1,1
1461662551892547,1,0,0,-1,0,-1,-1,1
1461662551894547,-4,-2,1,-4,-2,-2,-1,-1
1461662551894547,-1,5,5,-2,-1,-1,-1,-2
1461662551906555,-1,-12,-13,-2,-4,-1,-1,-3
1461662551906555,0,-4,-17,-3,0,1,-2,-3
1461662551913578,-4,6,20,1,-2,-3,-1,-3
1461662551913578,-2,-3,-7,-1,2,1,1,0
1461662551929601,4,-6,-5,-3,-3,-4,0,-1
1461662551929601,-1,1,7,1,0,0,-1,-1
1461662551936606,-4,-2,-10,2,-2,-2,0,-1
1461662551936606,-3,-6,-3,5,-1,-3,-2,-1
1461662551952603,7,3,0,-3,0,2,0,1
1461662551952603,0,1,0,-3,-4,-3,-2,-2
1461662551958608,-6,1,4,-7,-4,1,0,-1
1461662551958608,-1,-12,-20,-4,0,0,-3,-2
1461662551966598,5,2,-12,6,4,1,-1,-1
1461662551966598,-5,-4,11,0,0,-1,-3,-3
1461662551973662,-4,4,5,0,1,1,3,1
1461662551973662,3,5,5,-2,-2,-3,1,0
1461662551989673,1,1,-1,-9,-5,-2,-3,-2
1461662551989673,-3,-7,-16,0,-1,-1,-1,0
1461662551996684,-10,-9,10,13,3,-1,-2,-1
1461662551996684,2,-2,-8,-4,-4,0,0,1
1461662552011631,3,3,4,0,-3,-1,-2,-3
1461662552011631,1,3,7,4,7,1,2,1
1461662552018693,-5,0,-3,-7,-3,-1,-2,-3
1461662552018693,1,-5,-4,2,0,-1,-2,-2
1461662552026640,6,-2,-4,-6,-6,-4,0,-3
1461662552026640,-7,9,23,6,-2,-1,-1,-1
1461662552035648,-10,-17,-29,-5,-1,-2,-1,0
1461662552035648,6,12,18,12,8,1,0,1
1461662552049719,2,-6,-2,-4,-3,0,-2,-5
1461662552049719,-4,1,4,1,-4,-2,-1,-2
1461662552056692,2,-1,6,-2,0,0,0,2
1461662552056692,-2,-3,0,2,-3,-2,1,1
1461662552072680,1,0,-8,-1,-1,-2,-1,1
1461662552072680,-3,0,-9,-7,-1,-3,-1,-3
1461662552074684,-5,10,-7,-17,-6,-1,2,0
1461662552074684,1,2,1,-1,-7,-3,-3,-1
1461662552086685,4,0,2,10,10,1,1,0
1461662552086685,-7,-3,8,16,1,0,0,-2
1461662552095689,-1,4,-6,-9,-3,-3,-2,-1
1461662552095689,1,-5,-2,5,3,-1,-1,-3
1461662552109699,4,2,-3,0,-2,-1,1,0
1461662552109699,-7,-4,3,-10,-8,-2,-3,-3
1461662552116721,-9,-12,-12,1,1,1,2,-2
1461662552116721,-1,0,-3,-6,-2,-1,0,0
1461662552132716,1,-6,-2,-10,-6,-4,-6,-5
1461662552132716,-1,-13,-13,-1,0,0,-2,-2
1461662552134717,-3,9,4,-5,-5,-2,0,-1
1461662552134717,4,3,-3,-7,1,2,1,1
1461662552146725,0,-4,7,22,8,2,-1,-1
1461662552146725,2,8,8,-9,-2,-1,1,2
1461662552155741,-8,-1,6,-9,-5,-5,-2,-1
1461662552155741,1,-5,-16,6,-3,-2,1,1
1461662552169742,1,-9,5,-9,-6,-2,-3,-3
1461662552169742,-2,2,-2,5,3,4,0,-3
1461662552176762,0,4,8,8,8,1,2,2
1461662552176762,-9,-7,7,-12,-7,-4,-4,-2
1461662552192816,7,16,14,-7,-6,-3,-1,-1
1461662552192816,0,-16,-37,-7,-1,-2,0,0
1461662552194776,-12,-8,-4,3,-1,-2,-3,-4
1461662552194776,0,-1,5,4,3,2,0,0
1461662552205781,3,-4,-12,-3,-3,-2,-1,-3
1461662552205781,2,5,8,-12,-8,-2,-2,-2
1461662552215791,-5,3,-6,2,-1,-2,-2,-2
1461662552215791,2,5,9,16,8,0,0,-1
1461662552237792,7,-1,10,-2,-4,-4,1,-3
1461662552237792,3,1,-2,6,4,-1,0,4
1461662552238825,-12,-6,-3,-12,-7,-4,-2,1
1461662552238825,-7,-1,-6,-8,-2,-2,-2,-4
1461662552251813,4,3,-3,-5,0,2,0,0
1461662552251813,8,1,7,7,3,3,2,1
1461662552258817,-16,-3,6,7,-1,-1,-1,-3
1461662552258817,-17,4,4,-6,-2,-3,-6,-1
1461662552265868,16,-7,-12,-8,-2,-1,-1,3
1461662552265868,12,-1,4,2,-7,-4,-4,-4
1461662552280821,-8,0,-11,1,8,2,-1,2
1461662552280821,-22,2,6,6,3,2,1,0
1461662552289830,17,2,-1,-6,-5,-3,-1,3
1461662552289830,34,4,9,-2,-3,-2,-2,-1
1461662552295835,-15,-13,-17,5,-1,0,1,-4
1461662552295835,-36,-8,-19,-9,-7,-5,-4,-5
1461662552311843,7,2,5,10,4,0,-3,-3
1461662552311843,30,2,-2,-10,-2,0,0,3
1461662552318848,-12,2,5,1,-1,1,1,0
1461662552318848,-26,-3,-3,5,3,1,1,0
1461662552325853,9,-3,-6,-7,-2,-5,-6,-1
1461662552325853,23,-2,-9,-8,0,-2,-1,-4
1461662552334858,-15,6,16,27,6,0,-2,-1
1461662552334858,-23,-2,-2,-14,-5,0,2,1
1461662552349868,10,1,-6,12,10,5,0,1
1461662552349868,18,6,2,11,1,1,-1,-2
1461662552355873,-12,0,2,-6,-4,-3,-3,-1
1461662552355873,-17,0,-6,-19,-12,-4,-2,-2
1461662552371885,7,-11,10,10,-3,-4,-3,-4
1461662552371885,8,1,2,11,7,2,3,1
1461662552378890,-16,-4,-9,-5,-3,-1,-1,0
1461662552378890,-10,0,5,5,-2,-2,0,1
1461662552394900,5,-2,-10,-19,-10,-3,-1,-1
1461662552394900,6,-2,-6,-10,-4,-1,-2,-2
1461662552396902,-8,5,5,-3,-6,-4,-2,-5
1461662552396902,-3,1,2,7,6,0,-1,-1
1461662552408955,12,-2,-2,9,2,0,-1,0
1461662552408955,4,-2,0,0,2,1,1,1
1461662552416007,-9,2,-2,-13,-5,-1,-3,0
1461662552416007,-12,-3,3,-6,-9,-4,2,-3
1461662552432030,10,2,-10,3,3,1,3,1
1461662552432030,5,2,6,18,9,1,-1,4
1461662552438988,-11,-5,-4,-17,-11,-5,-7,-6
1461662552438988,-6,-2,8,19,10,2,3,-1
1461662552455000,9,-2,3,-3,-5,1,-1,0
1461662552455000,-1,-8,-8,-10,-4,1,-5,-5
1461662552456980,-6,-3,-8,-4,4,1,3,0
1461662552456980,-9,2,7,7,7,0,-4,2
1461662552470011,5,8,-20,-5,-3,-5,-5,4
1461662552470011,0,1,31,-22,-12,-7,-9,-4
1461662552484056,-5,9,0,5,0,1,9,-1
1461662552484056,-11,2,5,0,0,2,5,0
1461662552492001,3,11,2,3,3,1,-3,0
1461662552492001,-5,-31,-31,-8,-6,-3,-3,-6
1461662552499006,-8,-7,2,2,3,-1,-3,1
1461662552499006,4,11,7,-8,-6,-1,-1,-2
1461662552516050,6,2,13,-5,-3,0,3,3
1461662552516050,-1,8,1,22,9,4,11,2
1461662552517020,-9,4,7,4,6,7,21,3
1461662552517020,-2,-11,-18,-4,-2,-1,-24,-2
1461662552529056,5,-6,0,-18,-7,-11,-3,-9
1461662552529056,1,10,-1,4,-2,0,-12,-1
1461662552538037,-8,-7,0,9,2,1,-9,-6
1461662552538037,-7,-2,-4,-4,-1,-3,6,1
1461662552552062,6,-2,14,10,0,-3,-19,2
1461662552552062,2,8,-8,-5,-1,-3,4,-1
1461662552559053,-8,2,0,22,13,2,11,0
1461662552559053,-2,-11,-20,-9,-6,6,12,0
1461662552575100,6,-1,-15,-19,-4,1,2,-2
1461662552575100,-1,4,9,14,14,4,5,1
1461662552577090,-6,10,25,45,9,1,-15,-4
1461662552577090,-10,-2,7,8,-4,-5,-1,0
1461662552590070,6,9,-10,0,-2,4,16,2
1461662552590070,-6,-18,-14,-15,-8,3,16,4
1461662552596087,-7,-15,-22,-32,-14,-7,-34,-11
1461662552596087,4,6,-1,-14,-2,-14,-25,-3
1461662552612103,4,-7,-2,2,-2,-9,-26,0
1461662552612103,-2,0,7,-15,-9,-3,1,-9
1461662552619130,-2,5,6,-3,2,8,24,-2
1461662552619130,-6,-5,-7,-14,-16,-1,19,2
1461662552634165,3,0,-7,-18,-4,-2,8,1
1461662552634165,-1,4,-14,-14,-3,-7,-13,10
1461662552635135,-6,-10,3,17,6,-2,-8,7
1461662552635135,-4,6,0,19,18,6,-8,-5
1461662552650143,0,-20,10,-24,-13,2,4,-9
1461662552650143,5,16,-13,3,2,2,0,-3
1461662552656119,-4,11,0,-9,-7,-5,-9,-4
1461662552656119,-2,-2,-7,-43,-21,-5,0,-5
1461662552671131,4,-6,13,59,24,11,19,14
1461662552671131,-10,-8,10,9,6,2,13,-4
1461662552679196,-5,18,-3,-5,-3,-4,-23,-17
1461662552679196,5,3,8,5,4,-4,0,2
1461662552702168,-2,-21,-21,-3,-4,1,-2,17
1461662552702168,-19,1,-1,2,-4,-4,-5,2
1461662552703169,-2,-3,2,-1,-5,-6,33,7
1461662552703169,2,-7,-1,-4,13,4,-22,1
1461662552710159,-1,4,1,-1,-2,-2,-18,-17
1461662552710159,-4,-7,-4,-7,-7,-6,-1,-1
1461662552716179,-5,-5,-16,-24,-4,-1,-2,-7
1461662552716179,-11,-16,3,5,-9,0,10,-5
1461662552731235,5,1,-11,-15,4,8,8,13
1461662552731235,-11,8,15,36,-1,-2,-5,-12
1461662552739207,-8,-9,9,2,4,-2,-7,-1
1461662552739207,-9,5,-4,20,11,3,-10,7
1461662552754217,-4,10,13,-19,-19,-10,-1,3
1461662552754217,-10,-6,-7,-8,12,3,-4,0
1461662552755192,-4,-10,-19,-29,-6,-1,2,-6
1461662552755192,19,-1,19,27,18,9,36,4
1461662552770199,0,-5,4,10,-3,2,-6,15
1461662552770199,-18,4,-9,-19,-12,-2,-10,-7
1461662552776206,-1,-21,4,-1,-1,2,9,-14
1461662552776206,2,26,0,-14,-10,1,-7,-2
1461662552791214,-4,-34,-12,-13,-9,-11,-8,-8
1461662552791214,-6,13,8,11,2,-9,5,8
1461662552799219,-7,1,15,10,4,-2,-16,0
1461662552799219,-4,1,-7,-9,-8,-1,9,-10
1461662552816231,1,14,-2,13,17,9,-2,-2
1461662552816231,-4,-1,-8,-42,-23,1,5,-10
1461662552817257,-5,-3,32,81,30,0,-10,2
1461662552817257,4,-11,-14,-5,-1,-6,3,7
1461662552830332,1,-6,13,14,-3,3,22,-6
1461662552830332,-18,5,17,-3,6,5,-3,-10
1461662552836374,-6,0,-35,-45,-15,-6,-14,-3
1461662552836374,22,0,5,24,-1,-2,-25,11
1461662552852385,-5,-2,1,5,4,-3,-20,-16
1461662552852385,0,7,4,34,7,1,22,-7
1461662552858364,-2,-2,-20,-21,0,12,65,34
1461662552858364,-4,-1,-7,-14,-2,-2,-20,8
1461662552876429,-1,-6,-20,-27,-19,-1,58,3
1461662552876429,-23,-7,3,-23,-10,-2,-40,-6
1461662552876429,-2,0,11,-9,-18,-27,-71,-34
1461662552876429,11,-3,-1,33,19,-5,-13,-9
1461662552890388,-6,26,23,23,9,7,-22,-14
1461662552890388,-13,4,-11,-12,1,13,44,26
1461662552896436,-5,6,2,15,5,6,51,30
1461662552896436,-8,-16,-8,-17,-7,3,-10,-11
1461662552912421,0,-9,-6,-3,-18,-20,-25,-14
1461662552912421,-16,8,0,26,21,1,-11,-6
1461662552918424,-7,8,2,-31,-13,11,29,7
1461662552918424,15,2,9,-4,-9,-1,31,10
1461662552934421,1,-2,31,56,36,3,-33,-12
1461662552934421,4,1,-30,-7,-1,-3,-8,-11
1461662552935424,-6,-2,9,36,12,4,10,28
1461662552935424,3,-10,-5,-9,-8,-14,-14,17
1461662552950432,0,-36,-39,-41,-19,-2,-5,-5
1461662552950432,-32,-1,1,-53,-27,-6,-32,-37
1461662552956420,-1,27,34,18,2,13,10,-21
1461662552956420,14,13,2,50,43,14,0,42
1461662552972493,-6,-23,6,13,3,-16,-21,-1
1461662552972493,-24,-17,-1,-25,-10,5,70,-2
1461662552978495,-5,-8,-18,0,1,21,-6,19
1461662552978495,-8,-19,0,6,-10,-18,-54,-38
1461662552994459,0,33,-5,-11,-8,-18,-53,-8
1461662552994459,-28,-5,-10,-22,-1,-6,0,-8
1461662552995460,-3,14,-3,-6,-10,-6,18,-7
1461662552995460,6,9,4,-4,4,19,34,4
1461662553010470,-1,29,-12,-19,4,15,-4,-3
1461662553010470,-16,37,13,36,-3,-19,-1,12
1461662553016521,-10,17,-25,-36,-9,-14,-16,13
1461662553016521,12,-27,1,-42,-38,2,5,0
1461662553032499,-2,-29,4,2,14,2,-13,-27
1461662553032499,8,-16,9,38,12,-7,-46,3
1461662553038493,-5,32,-5,-15,-7,-17,15,-19
1461662553038493,5,-3,23,16,5,8,-8,-3
1461662553054490,0,-12,4,-14,-2,16,62,32
1461662553054490,-39,-26,-23,6,5,-2,-35,-9
1461662553055490,-2,-28,-1,-42,-26,-1,31,-16
1461662553055490,12,-71,-4,26,16,5,-14,-11
1461662553076517,-5,-9,5,10,-4,-18,2,33
1461662553076517,-42,-67,5,23,3,-15,-56,-15
1461662553077506,-7,-59,-22,-78,-28,-12,-23,-9
1461662553077506,25,125,6,67,19,13,68,19
1461662553092516,3,-27,1,11,7,12,3,-8
1461662553092516,-15,69,-13,-13,-6,3,20,5
1461662553098533,-10,24,16,16,17,15,8,-3
1461662553098533,-19,-31,-18,-34,-3,-1,-26,-14
1461662553114543,0,-20,-12,-29,-16,-10,6,-8
1461662553114543,-27,-4,18,-4,-18,0,11,-4
1461662553115545,-8,-16,-6,28,11,0,2,10
1461662553115545,21,18,-6,-48,-1,9,-13,6
1461662553136606,-5,-11,-4,36,10,-12,-38,-17
1461662553136606,-15,-24,-12,-5,-27,-40,-44,-21
1461662553137549,-1,2,14,36,10,-4,-29,-1
1461662553137549,-15,9,-19,-26,-14,-17,32,12
1461662553152579,-5,-62,6,-43,-26,20,51,7
1461662553152579,37,-59,17,20,24,30,58,33
1461662553158576,-6,19,-18,14,10,-9,-26,6
1461662553158576,-1,-4,-11,4,7,-5,-42,-23
1461662553173575,-2,-21,2,14,-5,-3,-2,-20
1461662553173575,-12,17,-8,-86,-18,16,-20,-1
1461662553181637,-2,38,25,102,35,-11,-26,-12
1461662553181637,22,24,6,-18,0,13,48,15
1461662553196739,-4,-11,-2,-40,-12,-8,-34,-12
1461662553196739,-40,16,14,83,32,-8,0,5
1461662553197681,-5,15,3,-35,-11,13,37,18
1461662553197681,-11,-3,-28,-30,-15,10,44,20
1461662553212695,2,-27,-2,28,22,7,-52,-25
1461662553212695,10,8,-2,-5,-4,-4,30,0
1461662553218717,-1,20,-13,-73,-22,24,50,13
1461662553218717,-18,2,46,82,7,-35,-55,8
1461662553233706,-51,-30,4,-60,-23,-25,-34,2
1461662553233706,-25,-8,1,20,20,10,-23,-13
1461662553241725,-11,12,-24,-46,-26,-19,6,-18
1461662553241725,7,5,22,9,1,29,51,6
1461662553256734,1,-25,-24,-34,7,21,3,3
1461662553256734,-3,-7,5,40,14,-9,-33,-5
1461662553257722,8,-7,-11,-33,19,7,11,-1
1461662553257722,30,9,7,44,28,-8,-24,-20
1461662553272738,-41,-20,15,47,9,7,-5,1
1461662553272738,-14,6,-4,-29,-12,0,34,1
1461662553278807,38,16,15,-3,-7,-6,-46,10
1461662553278807,39,10,-3,-78,-49,-22,27,16
1461662553293768,25,-7,-19,9,2,15,93,14
1461662553293768,-8,1,13,5,0,21,14,5
1461662553301775,-18,15,1,-21,-25,-2,-49,-27
1461662553301775,-13,24,-17,-63,-31,-64,-128,-24
1461662553316784,-11,-14,26,92,51,-7,-22,26
1461662553316784,-36,-32,-22,-41,-4,11,62,-3
1461662553317766,-2,-5,12,-23,-10,14,15,-28
1461662553317766,18,-4,-2,42,10,19,24,8
1461662553332778,12,-25,2,-26,-16,14,55,15
1461662553332778,-8,6,-8,13,14,-3,45,6
1461662553338798,30,16,29,104,27,1,-76,4
1461662553338798,-10,8,-32,-86,-18,-19,-39,-28
1461662553353830,-50,-18,12,20,-36,-2,2,-9
1461662553353830,10,4,-15,29,30,6,13,19
1461662553369842,8,14,17,7,17,-6,-5,21
1461662553369842,39,7,-15,-35,-12,15,38,8
1461662553376866,21,-20,1,-88,-29,3,-32,1
1461662553376866,-92,8,-31,18,1,-28,-56,-12
1461662553377810,24,9,-20,6,-1,-38,-24,0
1461662553377810,5,4,21,30,18,37,71,6
1461662553399853,-10,-21,-21,-72,-15,-3,-52,-33
1461662553399853,42,-1,20,2,-35,-33,-33,20
1461662553399853,10,36,-37,-63,-13,-7,-8,9
1461662553399853,-9,11,35,36,1,3,30,8
1461662553413851,20,-5,-1,81,78,38,46,-6
1461662553413851,-10,10,-32,-76,-27,6,-15,-29
1461662553429863,3,-8,40,101,30,-3,6,8
1461662553429863,26,-4,-14,-45,-16,2,-14,4
1461662553436912,-32,-9,-17,-12,3,-4,19,3
1461662553436912,-11,6,30,34,25,28,74,3
1461662553437851,-12,1,31,-115,-57,20,-81,-35
1461662553437851,5,-9,-42,119,75,-35,-88,24
1461662553452861,-6,-11,-3,12,-10,-26,21,21
1461662553452861,-21,10,-20,-50,-4,27,15,-18
1461662553458877,-25,6,-6,-12,-14,-9,11,-4
1461662553458877,15,-4,8,-16,-20,-4,30,23
1461662553473877,24,-7,-7,4,-10,-24,-52,1
1461662553473877,-6,5,16,-15,-8,1,-19,-26
1461662553480910,-20,5,-17,13,20,28,-1,-37
1461662553480910,-24,-6,-13,-13,-18,-48,-96,-11
1461662553496922,5,-6,-17,-18,-22,-19,35,10
1461662553496922,-1,8,14,-26,-4,11,22,-12
1461662553497898,32,0,-1,47,39,14,23,23
1461662553497898,-6,-5,-33,-87,-30,4,18,-2
1461662553512917,-10,-3,68,-48,-47,-12,4,-4
1461662553512917,-30,5,-8,5,27,14,-25,-14
1461662553518924,13,0,-26,-41,-7,-14,19,20
1461662553518924,1,-1,13,-2,8,25,22,-2
1461662553533977,-5,-2,-31,-31,-28,0,1,-6
1461662553533977,3,11,4,2,-18,-26,-67,-6
1461662553541071,-13,0,1,19,-5,-31,-28,16
1461662553541071,-39,2,9,-18,-16,4,1,-21
1461662553557025,22,-3,-12,24,6,-37,6,21
1461662553557025,7,2,8,5,-1,2,21,-22
1461662553558025,-12,0,-4,24,29,74,18,-14
1461662553558025,20,-4,8,-5,-20,-21,-37,9
1461662553573163,-9,-4,-37,-36,2,2,3,-4
1461662553573163,7,1,34,52,-1,-23,14,6
1461662553579188,-6,4,13,-35,-12,-15,20,5
1461662553579188,9,-8,-13,-12,15,27,18,-9
1461662553594240,-16,-3,-5,13,32,10,-3,-9
1461662553594240,1,4,-11,-37,-23,-12,-21,1
1461662553601181,-1,-2,-10,7,-3,-10,-9,2
1461662553601181,34,-12,27,33,11,3,5,12
1461662553617252,-28,6,1,-14,-19,-3,-4,-4
1461662553617252,-5,2,-20,-3,3,6,-1,5
1461662553618220,-9,2,-6,13,2,-4,64,11
1461662553618220,29,-8,4,6,11,-14,-31,15
1461662553633208,11,-2,0,13,-3,-4,-62,-26
1461662553633208,-42,9,-4,-7,-3,-19,-50,-13
1461662553639214,-14,-2,-1,-1,-3,-15,-21,-7
1461662553639214,14,-10,1,-7,-2,69,70,2
1461662553654220,20,-3,-11,-16,3,15,61,9
1461662553654220,-13,3,12,15,4,10,-10,4
1461662553661237,-1,-1,-14,1,-11,-31,7,11
1461662553661237,-6,-14,14,-34,-17,-15,-9,-15
1461662553677293,29,10,3,48,39,16,-11,-14
1461662553677293,-49,3,-16,-36,5,-4,10,10
1461662553678248,-32,-7,22,-7,-22,-8,-9,6
1461662553678248,38,-19,-6,55,34,8,5,-8
1461662553693246,19,9,-1,-6,-10,-4,-12,-14
1461662553693246,-29,6,5,-2,-6,0,12,11
1461662553707266,-34,-8,-10,-25,-11,-6,-21,0
1461662553707266,44,-17,-5,-12,-9,0,14,11
1461662553714308,29,11,11,4,0,-2,35,11
1461662553714308,-22,9,-5,4,1,3,24,-1
1461662553721280,-30,-12,-13,-2,-5,-7,-39,-6
1461662553721280,46,-17,4,4,-7,-31,-43,-13
1461662553737337,22,12,-5,12,9,17,-7,-15
1461662553737337,-26,0,-1,-20,-13,21,10,2
1461662553737337,-20,-10,-15,-3,-4,3,33,6
1461662553737337,29,-11,-9,1,6,5,14,-5
1461662553753332,13,10,11,-8,-1,-5,0,-6
1461662553753332,-26,-2,9,-4,-6,-13,-22,4
1461662553759290,-8,-10,5,45,30,-1,5,5
1461662553759290,18,-8,-4,-8,-3,-4,-1,-8
1461662553790371,7,10,3,0,-4,-2,-7,-2
1461662553790371,-19,-2,2,-4,1,-4,-2,2
1461662553791332,-8,-7,7,2,0,4,2,7
1461662553791332,8,-14,-9,-9,-15,-7,4,-9
1461662553797317,6,17,-12,-3,-2,0,-14,-9
1461662553797317,-1,-4,-4,-3,-11,-9,-7,13
1461662553797317,-6,-9,-2,-4,-1,-3,9,-7
1461662553797317,16,-14,6,11,8,10,29,10
1461662553819392,6,18,-7,-10,-4,1,-24,-10
1461662553819392,-20,11,0,-5,-12,-25,-40,-8
1461662553820336,-13,36,-19,-39,-17,5,-8,-7
1461662553820336,11,95,3,38,17,-6,9,-8
1461662553834359,11,115,3,8,7,4,11,9
1461662553834359,-13,-94,-10,-26,-5,-1,6,3
1461662553841408,-5,-128,7,1,-3,-3,8,1
1461662553841408,3,-83,-2,-12,-8,-5,-10,-9
1461662553857371,1,-63,2,-1,-1,0,5,1
1461662553857371,-11,-122,1,10,6,-1,-6,4
1461662553857371,-4,-128,-6,-10,-9,-1,-4,1
1461662553857371,3,-63,-2,-8,-6,-2,-6,-13
1461662553873380,-1,90,-1,3,-2,-5,-7,-6
1461662553873380,-6,-48,1,6,3,6,10,12
1461662553879387,-2,-57,-3,6,0,-2,3,1
1461662553879387,-15,-30,2,-1,-6,-7,-21,-13
1461662553893389,-4,75,-5,0,-2,0,0,-7
1461662553893389,-7,63,5,3,0,3,3,7
1461662553901395,-3,7,6,10,10,6,3,6
1461662553901395,-3,117,-7,-11,-4,-3,-2,-11
1461662553917404,-3,114,-9,-10,-12,-8,-5,1
1461662553917404,-10,115,-14,-25,-9,0,1,0
1461662553917404,-2,101,33,54,18,1,6,-1
1461662553917404,11,48,-3,-11,-3,2,2,-4
1461662553932416,2,52,6,0,6,2,-1,0
1461662553932416,-3,19,2,12,10,6,5,2
1461662553947431,-9,14,-2,-15,-9,-4,-2,-4
1461662553947431,7,-15,-6,-12,2,5,6,1
1461662553953431,2,-18,2,11,5,2,5,3
1461662553953431,-13,-21,-3,-3,-2,4,-1,1
1461662553961437,-5,-32,-6,-9,-3,-5,0,-2
1461662553961437,4,-34,2,3,-3,-2,-3,-4
1461662553984465,2,-52,1,-6,-3,-10,1,5
1461662553984465,-10,-36,1,7,6,22,6,3
1461662553985465,-3,14,-3,-2,0,2,-3,-4
1461662553985465,6,-7,-11,-6,0,1,3,-4
1461662553992471,-2,8,1,-2,-3,-6,-4,0
1461662553992471,-7,-9,6,10,0,-8,-4,3
1461662553998475,-3,5,-8,-3,3,2,-2,-2
1461662553998475,2,-6,2,-3,-5,-10,-4,-2
1461662554015474,-2,-4,-1,-6,-5,2,-2,1
1461662554015474,-6,13,3,5,5,-2,-3,4
1461662554021479,-2,-9,-3,-7,-4,-3,0,-2
1461662554021479,0,-15,0,6,4,2,-2,-4
1461662554036586,-2,-18,-1,-2,1,3,-2,1
1461662554036586,-5,-6,3,13,4,-3,-3,2
1461662554037548,-4,-9,-13,-20,-5,-3,0,-2
1461662554037548,0,-4,9,12,-2,1,1,-5
1461662554052560,-3,2,10,12,9,6,2,0
1461662554052560,-6,1,-9,-8,-1,-4,-2,0
1461662554058576,-4,-9,-1,1,0,1,-1,-4
1461662554058576,-1,2,-4,-8,-7,-2,0,-5
1461662554075577,-3,-7,-1,-4,-4,0,2,3
1461662554075577,-5,-3,1,-2,-4,-6,-2,3
1461662554081605,-2,11,-4,-4,-1,1,-2,-2
1461662554081605,-4,3,0,4,3,0,0,-3
1461662554096615,-6,4,1,3,2,-2,-2,-1
1461662554096615,1,0,-1,-1,0,-1,-3,0
1461662554097592,-1,8,0,0,1,-1,-1,-2
1461662554097592,-23,-2,-5,-9,-4,-1,-2,-2
1461662554112602,-15,-5,-3,-2,-3,-2,-1,0
1461662554112602,65,-7,-1,0,-2,-1,-1,-1
1461662554118607,46,-1,-2,-2,0,-2,-3,-3
1461662554118607,-74,-8,1,2,2,0,-1,1
1461662554133617,-94,-7,-3,-4,-2,-1,-2,3
1461662554133617,16,-6,-1,-9,-5,-2,-2,-1
1461662554141623,48,2,2,8,0,-1,-1,-4
1461662554141623,-29,-8,-2,2,-1,-1,2,0
1461662554156634,-60,-3,-4,-2,-3,-2,-2,-1
1461662554156634,18,1,1,1,0,-3,0,-3
1461662554163637,52,4,-4,1,-1,-1,-3,-4
1461662554163637,-17,-3,3,0,0,-2,-1,2
1461662554172644,-49,-3,-6,-7,-5,-1,-1,3
1461662554172644,16,1,-6,2,-3,-1,-2,-3
1461662554178665,40,-1,1,-2,0,-1,0,-2
1461662554178665,-16,-2,-5,-5,-1,-3,0,2
1461662554193662,-39,0,3,3,0,-1,-1,3
1461662554193662,18,1,1,-2,-3,-2,0,2
1461662554201736,27,-4,-4,-4,-1,-1,0,-2
1461662554201736,-15,-2,1,-3,0,-1,1,-1
1461662554216747,-27,-2,1,1,1,-2,-1,0
1461662554216747,13,2,-1,4,3,0,-1,0
1461662554223752,22,0,2,5,1,0,0,-1
1461662554223752,-7,-1,-3,-6,-6,-2,1,-2
1461662554232759,-21,-3,-4,-2,0,0,0,-1
1461662554232759,2,-7,-2,-4,-2,0,0,-1
1461662554238762,16,1,6,14,2,0,0,-1
1461662554238762,-9,-1,-5,-1,-2,-2,-4,-4
1461662554253759,-18,4,0,-2,-1,1,-2,-2
1461662554253759,2,-1,-1,0,-5,-4,-1,-2
1461662554261765,15,-1,0,-11,-1,-1,0,3
1461662554261765,-2,-10,0,5,2,-2,0,0
1461662554276776,-15,-7,2,3,3,0,0,1
1461662554276776,4,0,3,3,3,0,0,1
1461662554283823,10,0,-4,-10,-7,-1,-1,0
1461662554283823,-3,4,-7,-7,-1,0,-1,0
1461662554299792,-13,-3,-6,-16,-9,-3,-1,-2
1461662554299792,3,-5,2,4,0,-3,-2,-3
1461662554306782,9,1,2,-2,-5,-2,1,-1
1461662554306782,-6,-5,0,10,2,0,-2,-1
1461662554313787,-10,-1,-4,-4,-3,-4,-2,-1
1461662554313787,-1,1,-1,-2,-2,0,-2,-2
1461662554320945,4,-1,-6,-3,-1,-2,-1,-3
1461662554320945,1,-2,-4,-12,-6,0,-1,-3
1461662554335978,-9,-1,1,4,1,0,-2,-2
1461662554335978,-2,0,1,3,-1,-1,-1,2
1461662554343974,4,-4,-2,2,0,-2,-2,0
1461662554343974,2,1,-2,-4,-5,-1,0,-2
1461662554359974,-5,-2,-3,5,2,1,-1,-2
1461662554359974,-1,2,0,-6,0,0,0,1
1461662554359974,2,1,-4,-7,-4,-3,-1,-2
1461662554359974,-3,-3,1,0,2,-1,1,-1
1461662554374040,-1,3,0,2,3,2,2,0
1461662554374040,1,0,0,6,2,0,1,1
1461662554381044,5,0,0,3,2,2,-2,0
1461662554381044,1,-2,0,-7,-8,-1,-4,-3
1461662554395997,-4,-1,2,-1,0,0,-1,-2
1461662554395997,-10,0,-5,-2,0,-1,-4,0
1461662554404065,-9,-2,0,0,-5,-2,-1,-1
1461662554404065,18,3,-2,1,0,0,0,0
1461662554420043,14,-1,-1,1,0,-3,-2,-2
1461662554420043,-10,-6,-5,-1,0,0,-3,-1
1461662554420043,-13,-3,2,-2,0,-3,0,0
1461662554420043,4,-3,0,5,-1,-2,-1,-1
1461662554434052,11,-3,-3,-7,-4,-2,1,-3
1461662554434052,-25,0,2,-1,-3,-3,0,1
1461662554441056,-28,1,0,8,4,2,0,1
1461662554441056,34,2,-5,-19,-8,-1,0,-2
1461662554456067,43,-2,8,25,10,2,-1,-3
1461662554456067,-23,-2,0,-5,-4,-2,0,1
1461662554464059,-36,-3,-8,-2,1,-1,-1,0
1461662554464059,17,1,3,5,-1,-1,1,-3
1461662554479071,36,-2,3,-3,0,-1,-5,-3
1461662554479071,-22,1,1,1,-1,-1,-3,0
1461662554480055,-33,-2,-3,-6,-3,-1,-2,1
1461662554480055,13,-3,-3,1,-3,0,-3,-1
1461662554495065,27,-2,-3,-3,-4,-2,-1,-3
1461662554495065,-20,0,-3,0,0,-2,-2,0
1461662554501070,-22,2,0,-3,-1,-2,0,0
1461662554501070,10,-4,2,5,2,-2,-2,-3
1461662554516142,18,0,-1,-2,-3,-2,0,-1
1461662554516142,-19,2,1,-2,-4,0,2,3
1461662554524156,-19,0,0,0,-1,1,-1,1
1461662554524156,25,-1,-1,0,3,0,-1,-3
1461662554539163,24,-1,-3,-4,-4,0,-1,-3
1461662554539163,-27,-5,-2,1,2,-2,-1,-1
1461662554540125,-22,-2,7,6,-3,-3,-2,-1
1461662554540125,18,-3,-14,-11,-1,-1,0,-2
1461662554555131,19,1,1,-2,-2,-3,-2,-4
1461662554555131,-16,-1,-2,2,-1,1,-3,1
1461662554561134,-16,-2,9,7,0,2,-1,2
1461662554561134,8,-2,-3,2,3,2,-2,-1
1461662554576127,8,0,-6,-5,-5,-2,-2,-3
1461662554576127,-10,-1,0,-3,0,0,2,1
1461662554584140,-9,-1,1,6,3,-2,3,-2
1461662554584140,-6,2,7,5,4,1,0,-2
1461662554599197,-14,-1,-3,-5,-4,-2,-1,-2
1461662554599197,-5,-1,-1,-4,-3,-2,-2,-2
1461662554600142,5,-1,-5,-4,-2,0,-2,-1
1461662554600142,-1,0,-1,-9,-7,-1,-2,1
1461662554615154,-12,-2,-1,-1,1,-1,-3,-1
1461662554615154,-3,-2,-1,3,2,-2,0,0
1461662554621156,4,-2,-3,-3,-2,0,-2,2
1461662554621156,0,-2,-2,-1,-1,-1,1,0
1461662554636224,-13,-1,3,5,-1,1,0,-2
1461662554636224,-3,-3,-4,-1,-3,-1,1,-3
1461662554644234,5,-1,0,-10,-5,-4,-1,-3
1461662554644234,1,-2,-1,1,1,-2,2,0
1461662554659334,-11,-1,-3,6,3,-2,-2,-1
1461662554659334,-2,0,3,6,3,2,-3,0
1461662554660314,3,-3,-8,-10,-5,0,-1,1
1461662554660314,1,0,13,13,3,-1,-3,1
1461662554675325,-10,-3,-6,-9,-3,-2,-1,-1
1461662554675325,-2,1,3,4,1,-4,-1,1
1461662554681349,3,-2,-1,-2,0,-2,-1,2
1461662554681349,-21,-1,-6,-6,-4,-1,-3,-3
1461662554704338,-22,-3,-2,-4,-4,-1,0,-3
1461662554704338,24,-1,1,-2,0,0,0,-2
1461662554705340,30,0,0,0,0,2,-2,0
1461662554705340,-5,-2,-5,0,-2,0,-1,0
1461662554727379,-25,0,-2,-3,-3,-1,-2,-1
1461662554727379,4,-3,-9,-15,-9,-5,0,-3
1461662554727379,15,-4,6,10,1,-3,-2,-2
1461662554727379,4,0,-5,-6,-3,2,1,-4
1461662554735360,-19,-1,3,3,2,1,-1,-2
1461662554735360,-19,0,-4,-1,6,2,0,0
1461662554741402,0,-2,-7,-3,0,0,1,2
1461662554741402,12,-1,-1,-2,-5,-2,-1,-1
1461662554756407,-3,-2,-2,-5,-5,-2,-1,-1
1461662554756407,-9,-4,-2,-3,-5,-2,-2,0
1461662554764380,-5,2,1,5,4,0,2,0
1461662554764380,6,2,3,7,2,1,0,0
1461662554779391,4,-2,-4,-1,2,0,0,-3
1461662554779391,-7,1,5,-2,-3,-1,-2,-3
1461662554780400,-8,0,-7,-8,0,1,0,-2
1461662554780400,10,-2,0,0,-2,-2,-1,-1
1461662554795402,5,-1,1,2,2,0,-1,0
1461662554795402,-9,0,-5,-5,-3,-3,0,1
1461662554817437,-5,-1,3,3,1,0,-2,0
1461662554817437,11,0,-5,-6,-4,-2,-1,-1
1461662554819419,1,0,6,1,0,-1,-2,-2
1461662554819419,-11,2,-7,-4,0,1,-2,2
1461662554823436,-1,1,4,12,4,-2,-3,0
1461662554823436,8,-4,-7,-11,-3,0,1,0
1461662554839492,-7,-1,-3,-3,-4,-1,1,-2
1461662554839492,-9,-2,-4,-5,2,0,0,1
1461662554840434,2,0,-3,1,0,-4,-1,-1
1461662554840434,6,0,6,8,5,0,-1,-1
1461662554855445,-4,1,2,-3,-3,1,0,-2
1461662554855445,-5,0,1,3,-1,-1,-1,-2
1461662554861463,3,1,-7,-7,-1,1,0,2
1461662554861463,6,0,1,-1,-3,-1,-2,-1
1461662554876473,-5,-2,-6,-4,-2,-2,-3,-3
1461662554876473,-6,0,1,2,0,-2,0,-1
1461662554883522,0,1,2,-3,-1,-1,-2,-3
1461662554883522,3,-1,-4,-5,-4,-3,1,-2
1461662554899477,-5,-1,-2,3,2,2,-1,-1
1461662554899477,-8,-2,2,2,3,-1,-3,1
1461662554900478,1,-2,-2,-6,-2,1,0,-1
1461662554900478,6,1,4,4,1,-2,-1,-2
1461662554915488,-6,-1,-7,-11,-4,-3,-2,-1
1461662554915488,-9,0,3,5,1,-2,-1,1
1461662554921505,1,1,-1,4,0,1,0,1
1461662554921505,4,-2,-3,-9,-8,-5,-4,-4
1461662554936559,-5,-6,2,15,7,1,1,-2
1461662554936559,-9,-2,0,-7,-3,0,2,1
1461662554943518,0,-2,2,1,0,-1,-1,0
1461662554943518,5,-1,-7,-1,1,1,0,-1
1461662554959530,0,2,-3,-4,-5,-4,-4,-4
1461662554959530,-4,-4,-1,1,-3,-6,-2,-3
1461662554960524,1,-2,-2,-11,-6,-2,0,-1
1461662554960524,1,-3,0,-3,1,1,0,-2
1461662554975530,-4,0,-1,-2,-6,0,-2,-1
1461662554975530,-4,0,-2,1,0,2,-3,-2
1461662554981535,3,-4,-2,-4,-2,-1,-1,0
1461662554981535,3,-4,-2,3,-1,-2,-2,0
1461662554996602,-10,-1,1,-3,1,-3,1,-1
1461662554996602,-5,1,1,1,-2,-1,-1,1
1461662555003607,5,1,-1,-1,-2,-3,-1,0
1461662555003607,2,-1,-7,-17,-5,-3,-3,-1
1461662555019618,-12,3,9,24,9,2,2,0
1461662555019618,-6,-2,-5,-11,-3,-1,0,-3
1461662555020562,5,0,3,3,3,0,0,0
1461662555020562,3,-3,-1,6,0,1,-1,-2
1461662555035575,-8,-5,-13,-21,-4,0,-2,-3
1461662555035575,-3,-1,6,14,7,3,-1,1
1461662555041588,4,-4,1,4,-4,-1,0,-1
1461662555041588,-1,-1,-2,-2,0,0,1,-2
1461662555056592,-8,1,1,-1,-3,-1,-2,0
1461662555056592,-3,-2,-4,-4,-2,-3,1,-1
1461662555063606,5,-2,-4,-8,-2,-2,0,0
1461662555063606,3,0,3,4,1,0,0,-1
1461662555078613,-9,0,1,-1,-2,-3,-1,-1
1461662555078613,-5,-3,-2,-3,-1,-1,0,1
1461662555086619,3,0,0,2,-1,-1,-2,0
1461662555086619,0,-2,-1,0,0,0,-1,-1
1461662555095627,-9,-2,-1,-2,0,0,0,-1
1461662555095627,-2,-1,-1,-3,-4,-3,-2,1
1461662555101630,4,-1,-2,-1,-4,-1,-2,-2
1461662555101630,3,-2,-4,-4,-2,-2,-2,-4
1461662555117630,-11,-2,-3,-1,-1,-2,0,-3
1461662555117630,-7,0,2,5,2,0,-1,-2
1461662555123651,1,-1,-2,-3,0,0,-1,-2
1461662555123651,2,1,-6,-12,-5,-2,-2,0
1461662555138659,-9,-3,2,-4,-7,-4,-2,0
1461662555138659,-4,1,-5,6,-2,1,1,0
1461662555146650,3,0,-3,-9,-2,-2,1,0
1461662555146650,0,-2,4,8,0,-1,-1,-3
1461662555155670,-7,0,-3,-7,-2,-1,-1,-1
1461662555155670,-5,-1,-2,-11,-6,-1,-1,0
1461662555161699,1,-3,3,18,6,0,-1,-1
1461662555161699,1,-1,0,-8,-3,1,1,-1
1461662555176711,-6,1,-1,1,4,-1,-2,-1
1461662555176711,-3,0,1,-3,-2,-2,0,-1
1461662555183715,6,-2,-3,0,-1,2,-1,2
1461662555183715,2,-1,-2,-1,-2,0,-1,0
1461662555198745,-9,0,-2,-2,-1,0,1,-1
1461662555198745,-3,-1,-1,0,-3,-3,-2,-2
1461662555206704,1,-3,0,-6,-4,-3,-1,-3
1461662555206704,1,-1,2,6,0,-2,-2,-1
1461662555215700,-9,0,2,3,4,3,0,0
1461662555215700,-3,-1,-1,3,2,-2,-2,-1
1461662555221704,6,0,0,-4,-2,-1,-1,2
1461662555221704,1,-3,-3,-8,-2,-1,-2,0
1461662555236859,-10,-1,2,3,0,-1,0,-3
1461662555236859,-5,0,0,-9,-5,1,1,-1
1461662555243820,3,1,-4,2,1,-1,0,0
1461662555243820,1,-4,2,4,0,1,-1,-3
1461662555258829,-5,-2,-1,-6,-3,0,-2,-1
1461662555258829,-4,-1,0,3,2,1,-1,0
1461662555266852,4,0,-2,-11,-6,-3,-2,-2
1461662555266852,1,0,1,12,5,-1,-1,-1
1461662555281835,-10,-1,-1,2,2,-1,0,-2
1461662555281835,-1,2,-9,-9,-4,-2,-2,1
1461662555282835,3,-1,8,12,5,2,0,1
1461662555282835,2,1,5,6,0,-1,-1,-1
1461662555296907,-3,5,-2,2,-2,-1,-1,-1
1461662555296907,-5,-8,-3,-7,-1,-3,-3,-3
1461662555303907,8,2,-6,-2,0,0,1,2
1461662555303907,1,1,0,2,-2,-1,-1,-1
1461662555318916,-11,-1,-3,-8,-5,-1,-1,0
1461662555318916,-2,0,-3,-9,-6,0,1,0
1461662555326927,5,-1,1,-3,-1,0,-1,-2
1461662555326927,1,-4,1,5,0,0,-1,-2
1461662555341905,-10,-2,0,1,1,-2,-4,-2
1461662555341905,-2,0,-1,-1,-1,0,0,3
1461662555342885,4,-2,-2,-2,-2,-1,-1,-1
1461662555342885,1,0,-2,-1,-1,0,0,0
1461662555356916,-9,-2,-2,-5,-3,-2,0,-3
1461662555356916,-3,1,5,14,4,0,-1,-2
1461662555371918,5,2,0,-1,-3,-2,-1,3
1461662555371918,0,-1,-5,-10,-5,-2,0,-2
1461662555378965,-9,-1,0,4,2,-1,1,-1
1461662555378965,-4,1,1,0,-1,0,0,0
1461662555386927,0,-5,-3,-8,-7,-4,-3,-2
1461662555386927,0,0,-1,-6,3,1,-2,-1
1461662555401919,-9,0,-6,-2,2,1,-1,3
1461662555401919,-3,-2,3,9,3,-1,0,1
1461662555402919,3,-1,0,-4,-2,-3,-1,0
1461662555402919,0,-1,1,8,0,0,-1,-2
1461662555416929,-11,-3,-3,-7,0,-1,-2,-3
1461662555416929,-2,-1,3,3,1,3,0,0
1461662555423997,7,2,1,-2,2,-2,0,-1
1461662555423997,1,-1,-7,-14,-4,-2,-1,-4
1461662555438963,-8,1,11,14,1,-2,-2,0
1461662555438963,-3,-4,-5,-3,-5,-3,-1,-1
1461662555445967,5,-2,2,3,4,2,1,-1
1461662555445967,1,0,1,0,2,1,0,-2
1461662555461978,-7,2,0,-4,-5,0,0,-2
1461662555461978,-3,-3,-4,-4,-4,-3,-2,0
1461662555462965,3,-2,-2,0,-5,-1,-2,-3
1461662555462965,-1,1,3,2,4,0,0,-2
1461662555476033,-10,0,2,1,0,0,-1,0
1461662555476033,-2,0,-2,8,3,-4,-1,-1
1461662555484037,5,0,0,-6,-4,-2,-2,-2
1461662555484037,-1,-6,-8,-7,-5,0,-1,2
1461662555499004,-9,-2,2,-1,-2,-1,0,0
1461662555499004,-3,0,-2,-4,-3,-1,1,1
1461662555505992,5,-2,-1,0,-2,-2,1,1
1461662555505992,-1,-3,0,5,-5,-3,-2,-1
1461662555522017,-10,-2,6,16,9,0,1,-1
1461662555522017,1,2,-1,-1,4,0,-3,0
1461662555523005,4,-1,-3,-5,-1,0,-2,0
1461662555523005,-1,-1,-3,-2,-2,0,1,-1
1461662555538017,-8,0,-7,-4,-5,-1,-2,-1
1461662555538017,-4,-1,-2,-5,-3,-1,-2,-2
1461662555544031,4,-2,0,2,3,-2,3,-1
1461662555544031,0,-1,-3,4,5,-1,2,0
1461662555559080,-9,0,-3,-6,-4,-4,4,1
1461662555559080,0,1,5,16,4,1,-9,-1
1461662555566144,5,-6,-11,-16,-9,0,-4,-4
1461662555566144,-1,0,4,4,-1,0,-1,-4
1461662555582098,-6,0,-4,-2,1,-2,-5,-3
1461662555582098,-2,-1,-3,-7,-5,-2,12,5
1461662555583099,6,0,8,8,2,1,-8,1
1461662555583099,-1,-4,-5,-10,-7,-5,-8,-8
1461662555596109,-10,-3,-3,-4,-1,-1,-3,-2
1461662555596109,-2,2,2,-3,0,0,-2,-1
1461662555604114,8,-1,-3,-3,-5,-2,2,2
1461662555604114,2,0,0,2,1,1,5,2
1461662555619123,-16,-3,-3,-8,-3,0,-2,-2
1461662555619123,-8,-2,-2,-5,-2,0,0,0
1461662555626128,15,-1,-5,-3,0,-4,2,-2
1461662555626128,0,-2,-1,-4,-4,-1,-2,-3
1461662555650144,-17,-2,4,17,8,1,15,5
1461662555650144,-7,-4,-5,-12,-5,-4,-14,1
1461662555652146,10,-1,8,25,9,1,-6,-8
1461662555652146,1,4,1,-9,-6,-3,-8,-3
1461662555656149,-22,0,5,3,-1,1,-2,-4
1461662555656149,-7,1,-2,5,3,1,8,2
1461662555664155,9,-2,-4,-4,-4,-2,2,1
1461662555664155,2,0,3,-5,1,0,4,-1
1461662555679166,-20,-3,-1,-5,-5,-4,-4,-1
1461662555679166,-8,-2,-2,-3,-1,-2,-2,-3
1461662555686171,9,-3,-6,-5,-3,-4,-3,-1
1461662555686171,1,-1,-1,6,0,2,1,0
1461662555702188,-24,-2,-5,-12,-3,0,-8,-5
1461662555702188,-7,-6,-7,-8,-6,-2,5,0
1461662555703189,22,3,0,8,4,-4,-8,3
1461662555703189,0,-4,2,1,-1,-4,0,-5
1461662555716220,-29,-4,1,-2,-2,-3,3,1
1461662555716220,-6,1,-1,-6,2,0,-13,-2
1461662555724213,13,-1,-2,-10,-4,1,4,-4
1461662555724213,1,-2,6,-1,-9,-7,-13,-4
1461662555739223,-23,3,-4,9,11,4,4,-1
1461662555739223,-8,1,3,5,2,3,9,4
1461662555746229,15,-4,2,-5,-3,-2,5,2
1461662555746229,0,0,-5,-17,0,-1,1,-3
1461662555762283,-23,-4,-8,-6,-5,-2,-4,-2
1461662555762283,-7,1,6,7,5,1,8,2
1461662555763226,19,5,-1,1,0,1,0,1
1461662555763226,0,-8,-6,-23,-12,-7,-7,-7
1461662555776293,-21,4,8,20,1,-6,-10,-2
1461662555776293,-5,-1,4,18,4,0,-3,-2
1461662555784301,11,3,-1,-2,0,8,46,12
1461662555784301,-2,2,-3,-3,-1,2,-32,-3
1461662555807255,-28,-3,1,-3,-2,-10,-14,-16
1461662555807255,-5,10,5,0,-2,-8,-30,-1
1461662555814261,9,-5,7,3,0,-2,4,-4
1461662555814261,0,-3,-18,-18,-2,4,18,10
1461662555822267,-22,-4,-1,5,-2,8,23,0
1461662555822267,-7,-2,1,5,2,3,12,3
1461662555823267,17,-6,-9,3,1,-1,-8,3
1461662555823267,0,-3,-10,-7,-12,-16,-11,-4
1461662555836338,-20,-1,4,2,3,-2,-5,2
1461662555836338,-9,-3,0,-23,-11,-7,-9,-5
1461662555844283,18,-6,-11,-17,-8,-5,-24,-11
1461662555844283,2,1,11,28,19,7,-4,-6
1461662555859326,-19,6,-18,-24,-11,-1,12,4
1461662555859326,-7,-21,-11,-17,-7,0,10,8
1461662555866327,20,13,-10,-6,-6,0,-5,-1
1461662555866327,1,16,29,40,15,3,-2,-7
1461662555882309,-22,-29,4,-3,0,1,3,-2
1461662555882309,-6,0,-7,-4,2,0,-1,-3
1461662555883311,14,0,1,3,0,-4,-13,-5
1461662555883311,2,-8,-12,-5,0,0,-3,-4
1461662555896336,-9,17,5,-7,0,5,28,18
1461662555896336,-5,-4,-4,-1,-2,1,-19,0
1461662555904326,6,-9,-7,-19,-6,-7,-13,-11
1461662555904326,-2,5,7,20,6,0,23,9
1461662555919335,-17,-5,-5,-7,-5,-4,-22,-11
1461662555919335,-3,5,3,4,0,-4,7,5
1461662555926404,14,1,4,1,-4,-4,-27,-8
1461662555926404,0,-2,9,8,11,1,-3,-8
1461662555942365,-12,0,-7,-11,-8,-2,-3,-7
1461662555942365,-5,-3,-19,-31,-7,2,13,1
1461662555942365,12,1,10,31,11,7,6,10
1461662555942365,1,-5,7,-2,-1,-1,5,-1
1461662555956362,-10,0,-3,23,4,1,-2,-1
1461662555956362,-7,-3,17,18,9,3,-8,-7
1461662555964384,12,0,3,3,11,10,23,14
1461662555964384,2,1,-17,-18,-13,-4,-4,5
1461662555979394,-10,30,14,-37,-18,-9,-25,-12
1461662555979394,-6,-12,0,44,7,0,11,0
1461662555986382,10,12,-13,-6,-1,6,58,12
1461662555986382,-2,-33,-4,-11,-12,-3,-42,-20
1461662556002460,-13,-1,-1,19,17,-3,-9,0
1461662556002460,-3,23,2,-7,-15,-19,-26,4
1461662556002460,3,-32,-9,-27,-5,-3,5,-4
1461662556002460,1,20,3,11,8,13,39,10
1461662556018412,-9,0,-4,-20,-14,-7,-15,-13
1461662556018412,-5,-10,9,33,15,6,10,-2
1461662556023425,9,1,-3,-26,-22,-13,-25,1
1461662556023425,-2,1,-13,15,14,1,1,-9
1461662556038509,-9,-16,-29,-67,-26,0,18,0
1461662556038509,3,10,23,70,34,11,19,17
1461662556046571,7,5,25,16,-10,-5,-21,-3
1461662556046571,-2,5,-2,7,4,-13,-44,-19
1461662556061582,-4,-4,-15,-9,-3,-5,5,-3
1461662556061582,-6,-2,-12,-54,-23,4,-11,-10
1461662556068542,1,11,27,69,30,10,30,9
1461662556068542,0,-9,-12,-11,-8,-10,12,5
1461662556084563,-10,-3,-3,-8,-12,-5,-3,-4
1461662556084563,-6,6,-5,-17,-4,11,75,28
1461662556085549,-6,-19,-17,-22,-8,-4,-65,-17
1461662556085549,1,-6,1,-20,-8,-8,-15,-30
1461662556098557,-8,-2,7,-14,-4,-6,-17,5
1461662556098557,-2,-18,-15,-16,-14,-15,-30,-15
1461662556106562,9,14,5,13,9,-1,4,8
1461662556106562,-7,-5,-6,7,-4,-1,39,7
1461662556121567,-5,2,4,3,11,4,-20,-6
1461662556121567,-7,-14,2,17,5,1,11,-2
1461662556128585,6,1,1,-27,-10,14,42,16
1461662556128585,-6,-18,-19,15,2,4,-11,-9
1461662556144596,-5,19,5,13,-18,-16,-19,-3
1461662556144596,-11,-3,3,-40,-13,-16,-31,-10
1461662556145596,1,6,-18,15,10,-6,-22,-10
1461662556145596,-2,-8,2,-15,-12,2,20,0
1461662556158593,-6,-4,-11,2,4,14,40,16
1461662556158593,2,7,13,26,15,6,-9,13
1461662556166639,6,-7,3,-9,-8,-10,-13,3
1461662556166639,-1,17,-15,-12,-4,7,2,-11
1461662556182611,-3,-17,-5,-22,-7,-4,15,-1
1461662556182611,-9,11,3,-23,-14,-13,-42,-4
1461662556188629,1,-12,-4,26,4,-1,-13,-16
1461662556188629,-5,14,14,-1,11,12,39,17
1461662556204626,-9,-3,13,30,7,-2,-11,2
1461662556204626,5,-5,-9,-28,-7,-11,-24,-5
1461662556205627,-10,8,-17,-32,-15,-14,-12,-4
1461662556205627,-4,34,-16,-35,-14,5,21,17
1461662556218695,-6,-36,42,90,30,14,-27,-18
1461662556218695,5,-14,-8,3,9,9,31,-4
1461662556226701,-3,2,13,-6,-10,1,8,3
1461662556226701,0,-15,3,-1,-2,-1,22,-5
1461662556241652,-5,8,-11,-15,0,-3,10,18
1461662556241652,-3,-2,-13,-5,-7,-2,-25,4
1461662556248716,3,1,-7,-19,-7,-8,-21,-7
1461662556248716,-16,-5,5,-8,-9,-2,50,11
1461662556264740,-5,6,-4,23,25,16,-13,-18
1461662556264740,1,17,3,-18,-21,-17,-27,-2
1461662556265671,-2,1,-22,-28,-13,-10,-23,-6
1461662556265671,-1,3,19,54,4,-12,-3,-5
1461662556278750,-6,10,3,-11,5,11,9,4
1461662556278750,-6,-39,-21,-62,-40,1,36,0
1461662556286755,6,1,-3,37,45,18,-3,13
1461662556286755,-31,-15,15,44,6,-12,-30,-14
1461662556301701,-8,-37,22,-16,-14,2,54,4
1461662556301701,-5,-28,0,-2,8,10,25,6
1461662556308706,-7,-26,-17,-64,-37,-3,60,12
1461662556308706,-9,85,-16,-68,-21,-11,-110,-20
1461662556324712,-9,122,14,53,42,-8,-41,-17
1461662556324712,-4,67,-32,-64,-6,-5,-9,0
1461662556325713,0,-94,61,108,26,22,67,13
1461662556325713,-8,-13,-2,-20,6,24,44,20
1461662556338720,-4,10,-18,-17,-21,-21,-34,1
1461662556338720,-3,40,17,17,3,-3,-18,1
1461662556346730,-4,-3,-13,-7,6,-3,12,4
1461662556346730,-4,-46,-24,-23,-20,-15,-33,-12
1461662556369747,-8,-19,5,47,23,-5,-51,-7
1461662556369747,5,-10,-2,28,7,-8,-1,-3
1461662556370761,-1,-18,-35,-32,-16,-1,7,-14
1461662556370761,4,-44,5,27,16,8,10,-5
1461662556384757,-4,9,-12,-59,-27,-5,28,6
1461662556384757,2,8,-3,38,12,9,33,3
1461662556385784,0,3,9,-7,-7,-1,-29,-6
1461662556385784,-9,-8,-3,1,10,-5,-20,-13
1461662556398766,-4,7,-18,-31,-16,3,6,-10
1461662556398766,8,7,44,43,6,10,-7,10
1461662556406771,-3,1,-14,1,6,-3,55,25
1461662556406771,-12,-10,-6,-1,-3,-6,-48,-5
1461662556421779,-4,-9,-22,-61,-32,-11,27,-7
1461662556421779,-19,6,8,7,-3,1,-18,-11
1461662556428785,1,6,-24,-23,-11,-17,-47,-21
1461662556428785,-7,-22,25,16,5,7,20,11
1461662556444796,-6,-11,2,43,18,-6,-18,1
1461662556444796,2,6,-8,0,-8,-16,-8,7
1461662556445796,-3,-7,5,-24,-5,6,-6,-1
1461662556445796,-9,-2,5,-71,-26,2,0,-24
1461662556458878,-1,0,3,55,21,12,36,20
1461662556458878,10,3,-6,-17,6,-2,-4,12
1461662556466880,-2,-28,2,28,20,4,-12,3
1461662556466880,3,-12,-15,-30,-18,0,15,-8
1461662556481878,-4,21,16,5,-6,3,2,-4
1461662556481878,-8,18,-17,-49,-12,1,0,-4
1461662556488873,-3,-18,-22,16,-1,5,5,4
1461662556488873,-7,-24,8,-7,3,-14,2,13
1461662556504886,-4,15,8,7,12,9,5,-26
1461662556504886,24,19,23,-9,0,23,44,21
1461662556505886,0,-14,-29,-33,-22,-32,-120,-22
1461662556505886,-5,-19,13,63,21,-35,-30,-9
1461662556518940,4,8,-13,-52,-22,-21,-56,5
1461662556518940,0,17,-18,-30,-9,10,81,-8
1461662556526922,0,-15,55,-14,-18,14,-2,-27
1461662556526922,16,-22,15,83,41,4,-12,21
1461662556541897,-5,15,-13,-31,-16,-10,28,7
1461662556541897,-10,23,-38,13,8,8,0,-9
1461662556549932,-24,-22,32,23,11,14,22,17
1461662556549932,-79,-15,34,0,-14,5,35,-7
1461662556564976,-1,20,-7,28,40,18,-22,-12
1461662556564976,30,21,-10,-36,-8,-12,-9,18
1461662556565944,1,-14,12,11,-10,1,-9,17
1461662556565944,-57,-17,-1,37,30,9,44,-28
1461662556578930,-1,9,-8,-77,-28,44,112,20
1461662556578930,44,19,19,97,20,-41,-128,-38
1461662556586962,5,-11,-33,-5,4,-43,10,41
1461662556586962,-33,10,-10,-16,0,20,65,17
1461662556601969,34,26,1,8,4,8,-18,-10
1461662556601969,-25,27,2,-36,-26,-32,-75,-21
1461662556616979,-22,-15,6,-12,-5,-1,-13,-9
1461662556616979,-16,-18,-2,-35,-19,1,7,-8
1461662556624973,3,3,-26,14,33,19,38,3
1461662556624973,24,6,33,55,12,25,47,14
1461662556624973,-18,-14,11,18,-1,-2,-1,-12
1461662556624973,-21,-10,-13,-21,-1,2,-24,-7
1461662556638983,13,11,-27,-65,-31,-16,-11,-2
1461662556638983,29,6,22,36,25,21,40,5
1461662556646990,1,-9,-1,-3,3,20,54,14
1461662556646990,-24,0,-14,-22,-15,-14,-59,-2
1461662556660984,-23,4,22,17,0,0,59,-12
1461662556660984,25,6,-12,12,13,9,-1,3
1461662556669046,-25,-11,-2,-11,-14,-8,-38,3
1461662556669046,13,2,-11,-26,-1,-25,-53,-6
1461662556685057,24,4,11,29,-16,-60,-83,19
1461662556685057,-12,5,4,-28,-11,3,56,13
1461662556685057,-37,-9,-22,-15,2,23,14,-36
1461662556685057,0,-4,-19,-13,3,29,23,-12
1461662556699008,-21,9,18,1,-16,-2,-18,-13
1461662556699008,21,2,-1,35,15,2,16,3
1461662556706025,4,-7,0,8,16,1,-13,7
1461662556706025,-31,0,5,49,16,2,0,-7
1461662556723028,24,5,-33,-6,-5,0,-5,0
1461662556723028,-1,0,-1,-35,-15,-1,-6,12
1461662556729031,-10,-12,-19,-16,8,6,26,10
1461662556729031,4,2,7,19,-5,4,18,-12
1461662556745041,14,1,21,7,5,7,-42,23
1461662556745041,2,1,-13,0,-15,-37,-91,-34
1461662556745041,-4,-5,3,1,-3,-36,-40,-7
1461662556745041,-28,4,-1,-22,-6,25,85,15
1461662556759070,5,1,-6,2,1,7,-46,-16
1461662556759070,12,1,-6,-21,-11,-19,-32,-2
1461662556766075,-10,-7,0,-2,1,10,6,-3
1461662556766075,3,3,0,-1,-15,-12,4,-4
1461662556790095,-43,7,7,-51,-18,4,24,-26
1461662556790095,24,-2,-1,24,54,31,33,26
1461662556790095,16,-6,-24,-29,-1,-8,4,-9
1461662556790095,-22,7,-13,18,-4,-9,-30,-12
1461662556804148,1,0,-36,-72,-48,-16,13,13
1461662556804148,8,1,20,54,25,7,-18,0
1461662556805084,13,-6,21,3,8,2,13,21
1461662556805084,-14,8,-25,-22,6,30,72,-3
1461662556819113,-3,3,-9,-4,-14,-22,-112,-50
1461662556819113,-19,2,6,-14,-22,-28,-6,21
1461662556826117,-5,-6,-9,4,-22,-26,-29,3
1461662556826117,9,11,8,-23,-4,5,68,15
1461662556841126,-9,-1,13,33,24,20,-14,-7
1461662556841126,34,-4,4,-18,-13,-15,-36,-6
1461662556849153,-10,-3,-16,-29,-4,6,0,-5
1461662556849153,-9,8,12,15,7,-16,-59,-20
1461662556864163,6,4,-2,18,18,18,69,24
1461662556864163,-11,0,20,24,20,23,36,6
1461662556865125,13,-3,2,37,28,7,2,-4
1461662556865125,3,13,-15,-39,-20,-11,-33,-3
1461662556879175,-14,0,6,42,6,-3,28,15
1461662556879175,-7,-1,-21,-35,-16,-2,-9,-2
1461662556886179,6,-3,5,-24,-14,3,20,-16
1461662556886179,7,7,10,13,11,13,-17,15
1461662556901210,-14,-1,11,10,-4,-21,50,37
1461662556901210,-12,-8,-12,-21,-18,-5,-32,-4
1461662556909168,11,-3,8,17,5,8,36,-11
1461662556909168,15,13,-5,-4,-5,-25,-65,-20
1461662556924226,-2,-9,-2,-17,-3,3,-12,9
1461662556924226,-4,-12,-2,-28,-14,-18,28,-1
1461662556925169,11,6,8,-7,-9,42,5,-34
1461662556925169,11,17,3,17,27,5,9,15
1461662556939191,-9,-8,25,22,5,-4,-3,13
1461662556939191,-2,-13,3,19,20,11,17,3
1461662556946195,17,3,-6,-9,-1,-17,-16,-12
1461662556946195,-13,17,-4,-16,-15,-11,-10,-9
1461662556961212,-20,-7,-15,-3,-4,-3,-7,-1
1461662556961212,7,-17,-1,-4,0,5,12,5
1461662556969228,21,4,3,-10,-14,-12,11,-10
1461662556969228,-14,14,2,24,17,11,-25,9
1461662556984278,-15,-7,-2,6,2,-15,-9,7
1461662556984278,25,-9,-10,-8,-13,1,-2,1
1461662556992238,16,3,6,5,7,10,5,-13
1461662556992238,-47,12,-3,-14,-14,-27,-8,-16
1461662556999242,-12,-6,-10,1,1,24,-24,10
1461662556999242,-18,-3,-9,-10,-7,-27,-13,-5
1461662557006247,2,1,-6,-14,-2,11,8,3
1461662557006247,-17,5,5,10,5,12,14,-9
1461662557021237,-5,-3,11,25,11,8,13,-2
1461662557021237,8,-19,-23,-40,-21,9,16,4
1461662557029301,3,-3,13,52,28,-7,-11,6
1461662557029301,-31,6,0,-31,-25,-17,-11,-2
1461662557044266,-2,-2,4,5,12,-6,3,4
1461662557044266,20,-6,11,35,10,10,7,0
1461662557052317,0,1,-16,-29,-20,-10,-5,-1
1461662557052317,-25,8,-17,-15,-6,5,10,3
1461662557059277,-10,0,15,24,13,4,5,4
1461662557059277,-2,-5,1,-8,-1,-2,-28,-8
1461662557066326,4,2,-10,-5,0,12,63,11
1461662557066326,-10,1,4,28,3,-3,-33,11
1461662557089298,-10,-4,0,-20,-15,-38,-50,-5
1461662557089298,26,-10,-11,-1,-2,8,-3,-14
1461662557090284,5,-6,0,-3,-8,-19,-27,-19
1461662557090284,-19,5,-4,-18,-6,13,22,10
1461662557104307,-5,-2,3,8,12,29,33,5
1461662557104307,16,1,14,-8,1,15,14,3
1461662557112313,-1,8,-5,20,13,0,-14,-1
1461662557112313,-14,8,6,28,16,-2,-4,0
1461662557119317,-5,-3,-16,-7,-1,-18,-14,-4
1461662557119317,-1,-11,-3,-10,-7,0,11,1
1461662557126322,-1,-3,10,-21,-27,-7,-13,-14
1461662557126322,-12,7,4,2,-4,-9,-15,-3
1461662557141322,-2,-6,2,-1,-2,4,17,14
1461662557141322,3,-7,-2,5,0,-4,3,-4
1461662557149333,-1,8,-8,-11,-4,-11,-12,4
1461662557149333,-19,100,-7,-16,-8,2,1,0
1461662557164354,-6,14,9,8,5,27,13,-8
1461662557164354,0,-113,-11,-4,-5,11,16,-2
1461662557172357,-2,-40,4,7,2,-2,-13,5
1461662557172357,-49,-128,-3,-14,-9,-25,-54,0
1461662557187392,-6,-128,-9,-5,-8,-23,-13,-11
1461662557187392,-9,-52,8,-1,7,5,-3,-7
1461662557188355,2,94,-4,12,9,-4,7,1
1461662557188355,-17,12,8,-50,-22,7,22,2
1461662557201402,-10,6,4,35,21,5,2,-1
1461662557201402,12,18,10,12,13,-1,-2,-2
1461662557209381,-5,127,9,11,8,6,1,1
1461662557209381,-7,84,0,-4,-3,-3,3,1
1461662557224410,-7,11,-10,-29,-18,-8,-6,0
1461662557224410,9,25,-4,-4,-8,-17,1,-4
1461662557231447,-2,110,10,8,5,13,-2,-2
1461662557231447,-8,116,-6,6,5,4,-1,2
1461662557247415,-3,103,2,-6,-1,10,7,-3
1461662557247415,14,127,-5,15,2,-11,5,2
1461662557248416,-3,117,-4,-11,-8,0,-13,8
1461662557248416,-17,-53,-15,-2,-3,2,-10,-4
1461662557261426,-7,-85,-3,1,3,6,14,5
1461662557261426,13,-65,0,-4,-4,-7,0,1
1461662557269433,0,-69,-17,-21,-14,-7,-3,-10
1461662557269433,-16,-81,5,-21,-13,-14,-1,-3
1461662557284444,-7,-83,5,20,28,7,2,2
1461662557284444,7,-67,-2,7,1,4,-2,-6
1461662557291445,2,-46,4,16,7,4,2,-1
1461662557291445,-10,-42,12,12,4,7,3,4
1461662557307456,-5,-30,-6,-18,-19,-13,-7,-3
1461662557307456,11,-33,-6,-11,-5,1,-1,-3
1461662557307456,-3,-19,2,-2,-2,6,-2,-4
1461662557307456,-9,-6,-5,6,4,-8,-3,3
1461662557321451,-5,-22,0,-5,-6,-10,-9,-1
1461662557321451,8,-21,-7,0,1,8,3,-3
1461662557329478,-2,-42,1,-2,-1,6,2,-6
1461662557329478,-11,-9,-6,8,4,7,-3,1
1461662557343482,-2,13,1,-1,-5,-16,0,1
1461662557343482,-5,12,-3,-8,-6,27,2,-5
1461662557351487,-3,31,-3,-3,0,-5,-3,-5
1461662557351487,-13,18,-4,3,0,-5,0,3
1461662557368500,-5,8,1,-1,-3,-8,-2,0
1461662557368500,2,-7,-6,-3,-3,-11,-3,-4
1461662557369485,-2,-4,8,0,1,-4,-2,-1
1461662557369485,-10,-6,-6,6,6,2,5,5
1461662557381491,-5,15,0,-8,-11,-7,-3,-4
1461662557381491,3,18,9,12,11,0,-1,-4
1461662557397520,-2,7,-2,3,-4,-2,-2,-1
1461662557397520,-9,9,-13,-36,-11,-5,-1,4
1461662557403508,-4,3,14,31,16,10,3,1
1461662557403508,4,-2,2,5,0,-1,-1,-3
1461662557411530,-2,6,7,2,-1,-3,-2,-2
1461662557411530,-10,0,-9,-7,-8,-6,-1,2
1461662557427525,-7,-17,-24,-16,-7,3,-3,-2
1461662557427525,0,-7,-5,-6,-2,-2,1,-5
1461662557427525,-2,6,-7,-5,0,-4,0,1
1461662557427525,-11,4,7,10,0,-4,0,5
1461662557441545,-5,6,4,-3,-1,8,1,0
1461662557441545,5,-2,-1,1,-1,-7,-1,-2
1461662557448597,-2,-3,-3,-4,-1,-3,-4,0
1461662557448597,-6,0,4,9,2,4,-4,2
1461662557463554,-5,3,5,1,1,-2,1,-2
1461662557463554,-4,3,-9,-8,-6,-5,-1,-2
1461662557472584,-4,4,1,-2,-7,-5,-3,-3
1461662557472584,-3,1,-1,-1,1,3,2,0
1461662557487599,-4,5,5,14,8,1,-3,-2
1461662557487599,-1,5,-10,-18,-10,-3,-1,-3
1461662557487599,-2,-13,8,8,-7,-8,-3,-4
1461662557487599,2,4,-3,12,15,4,2,6
1461662557501605,-4,-6,-2,-14,-10,-6,-1,-2
1461662557501605,-9,1,4,7,9,4,0,-6
1461662557508610,-4,0,-1,-4,-5,-4,-2,-2
1461662557508610,18,-5,-3,-3,-2,-1,-2,0
1461662557523593,-4,-4,-3,-5,-5,-2,0,-2
1461662557523593,-31,2,-3,-5,-6,-6,-2,-1
1461662557532613,-3,2,-2,-1,1,-1,-1,2
1461662557532613,9,-5,2,3,0,1,-1,0
1461662557546647,8,3,-4,-3,-2,-8,-6,-3
1461662557546647,-31,3,4,-2,-3,7,4,-2
1461662557547609,-60,-2,-3,1,3,11,0,0
1461662557547609,20,0,2,8,2,-3,0,0
1461662557561633,54,5,3,-2,0,9,1,-2
1461662557561633,3,-5,-3,2,3,-5,-2,-1
1461662557569625,-38,-2,-3,-4,0,-2,-1,1
1461662557569625,0,-2,3,7,-1,-2,-1,-1
1461662557583663,34,-2,-6,-12,-8,-5,-3,-3
1461662557583663,8,-1,5,13,2,-4,-1,-1
1461662557592669,-42,0,-4,-15,-2,-2,2,6
1461662557592669,-5,0,1,9,4,-2,1,-1
1461662557606679,37,-2,-3,-17,-7,-4,-3,-4
1461662557606679,13,4,4,19,9,2,2,2
1461662557614685,-39,-4,1,2,0,-3,0,0
1461662557614685,-7,-8,-4,-10,-10,-1,-2,-3
1461662557621668,26,0,-4,-1,6,1,0,-2
1461662557621668,1,0,-3,-9,-7,-4,-1,0
1461662557628695,-24,2,1,1,-5,-4,-1,2
1461662557628695,-3,-10,-6,-4,-1,-1,-1,-2
1461662557643691,21,-1,1,2,0,-1,0,-2
1461662557643691,1,2,4,2,-5,-6,-4,-2
1461662557651697,-19,-5,-7,-1,2,3,0,-1
1461662557651697,1,3,4,5,0,0,0,3
1461662557666694,15,0,6,12,2,0,-2,0
1461662557666694,-1,-6,-3,-6,-2,-3,-1,-1
1461662557667696,-12,0,-2,-2,-2,-3,-1,0
1461662557667696,-2,1,-1,-7,-4,-2,-1,-2
1461662557681742,9,-2,2,13,6,-1,0,0
1461662557681742,4,-2,-3,-6,-2,0,0,2
1461662557688710,-9,0,-3,-1,-1,-1,0,-1
1461662557688710,-9,-2,-4,-4,-1,0,-1,-2
1461662557703758,7,1,4,6,0,-2,0,1
1461662557703758,3,3,-15,-20,-6,-2,-1,-2
1461662557711736,-11,-3,14,23,2,-1,-3,-2
1461662557711736,-1,0,5,14,10,2,-1,-1
1461662557726746,8,3,0,-6,-7,0,0,-1
1461662557726746,-2,-7,-4,3,1,-1,-4,-1
1461662557727734,-9,-1,-7,-14,-5,-4,-2,-2
1461662557727734,-1,0,2,-5,-3,0,0,-2
1461662557741852,7,-1,-1,1,-1,-2,0,-1
1461662557741852,4,-1,0,-9,-5,-3,-1,0
1461662557748856,-7,-3,-6,-7,-3,-3,-1,-2
1461662557748856,-5,-1,2,2,-1,-1,0,-2
1461662557763855,1,-3,-5,-2,1,-1,0,0
1461662557763855,3,-1,2,0,-3,-1,0,-1
1461662557771844,-3,-1,-4,1,1,2,-2,0
1461662557771844,1,4,1,-6,-3,-3,-2,2
1461662557786915,-1,-6,-5,2,-3,-6,-3,-3
1461662557786915,0,-4,1,-3,-5,3,0,-2
1461662557787860,-3,0,0,2,11,5,2,1
1461662557787860,-2,2,-1,-2,-1,0,-1,-1
1461662557801865,-1,-4,-2,-11,-6,-1,-1,0
1461662557801865,2,1,-5,-6,-6,-5,-2,-2
1461662557808887,-7,-6,-3,-5,-5,-4,-5,-3
1461662557808887,0,2,6,12,5,0,0,1
1461662557823889,0,0,-5,-5,-3,-3,-1,1
1461662557823889,0,-1,1,5,1,1,0,0
1461662557831912,-4,-2,-9,-13,-6,-1,-1,-3
1461662557831912,-3,1,-2,-5,-4,-2,-4,-2
1461662557847898,0,-1,2,6,2,0,0,0
1461662557847898,2,-3,-4,-8,-3,-1,-1,-1
1461662557847898,-1,0,0,4,1,-1,-1,-2
1461662557847898,-3,-2,1,1,-1,-1,-3,0
1461662557861909,2,0,-2,-3,-1,0,-1,0
1461662557861909,5,1,1,2,0,-2,-3,-1
1461662557868942,-4,-4,0,-3,-4,-2,-1,-1
1461662557868942,-4,1,1,9,4,1,2,2
1461662557891949,-2,-1,-1,-10,-5,0,0,1
1461662557891949,4,0,2,4,4,1,-1,1
1461662557892930,12,0,-1,9,2,1,0,-4
1461662557892930,-23,-1,-12,-20,-9,-2,0,-2
1461662557906960,-42,-1,8,10,3,1,-1,-2
1461662557906960,23,1,6,5,4,0,-1,-1
1461662557907941,55,0,0,4,3,-2,-3,-3
1461662557907941,-4,0,-4,-4,-6,-4,-2,0
1461662557921010,-35,-1,-5,-2,-4,0,1,3
1461662557921010,-6,-3,-2,0,-4,-1,-1,0
1461662557929017,37,-1,-4,-8,-4,-3,-1,-3
1461662557929017,-4,-1,-1,3,1,0,-2,0
1461662557943980,-37,-1,-3,-1,-2,-2,-3,0
1461662557943980,-10,-4,2,5,-1,-3,-1,-2
1461662557951011,35,2,-2,-6,0,-1,-3,-2
1461662557951011,-9,-6,2,-1,-2,-1,-1,-2
1461662557966087,-32,-4,-6,-3,-1,-2,-1,0
1461662557966087,4,-1,-3,-1,5,-2,-1,-3
1461662557975058,27,0,3,2,0,-3,1,-2
1461662557975058,-10,-2,-3,-2,-1,1,0,-1
1461662557981087,-22,-1,-3,-9,-6,-1,-3,0
1461662557981087,4,-3,-1,1,-3,-1,1,-1
1461662557989093,16,-1,-1,1,-1,1,0,-2
1461662557989093,-10,-1,0,-10,1,-1,-1,1
1461662558004102,-9,1,-10,-2,1,-2,1,2
1461662558004102,5,0,5,1,-2,-2,0,-1
1461662558011087,4,-1,7,16,5,-1,-2,-3
1461662558011087,-5,2,0,5,1,0,-1,-2
1461662558026117,-5,1,1,0,2,0,-2,-1
1461662558026117,4,-1,-7,-9,-4,-2,0,-2
1461662558034108,3,-1,-1,-7,-3,2,-1,-1
1461662558034108,11,2,5,3,-3,-2,-2,1
1461662558041114,20,-7,-4,-2,1,1,-2,-2
1461662558041114,-20,-2,-4,-8,-3,-1,0,1
1461662558049120,-49,-2,-1,-1,2,-2,1,1
1461662558049120,0,-1,-2,0,-3,-3,-1,-2
1461662558064154,30,-1,7,5,5,1,0,0
1461662558064154,5,-1,-5,1,-2,-1,-2,0
1461662558071131,-33,2,0,-1,2,0,-2,0
1461662558071131,-5,-5,-6,2,-2,0,0,-4
1461662558088133,31,-2,-2,-6,-5,-2,-2,-1
1461662558088133,6,-2,-1,-3,-1,1,1,0
1461662558094148,-36,-1,-3,-1,-5,-3,-2,-2
1461662558094148,-2,2,0,-3,2,-1,-3,-2
1461662558109147,28,-2,-1,0,-1,-4,0,-2
1461662558109147,2,0,1,4,3,1,0,1
1461662558110148,-28,0,-2,-5,-3,0,-2,1
1461662558110148,4,-5,-3,-3,-4,-2,-2,-1
1461662558124158,23,2,-3,-4,-2,0,-3,-1
1461662558124158,-5,-3,-2,-5,-4,-2,-2,-1
1461662558131174,-19,-1,-3,-2,-3,2,-1,-2
1461662558131174,1,-1,2,2,1,0,0,-1
1461662558148175,10,0,0,-2,-1,1,-1,1
1461662558148175,-1,1,1,3,-2,-2,-1,-3
1461662558154217,-14,1,0,-4,-2,0,1,-3
1461662558154217,-2,0,0,-6,-3,-3,-2,0
1461662558169190,11,1,2,4,1,-2,1,1
1461662558169190,0,-5,0,1,-1,-1,-1,0
1461662558170191,-13,-5,-3,-5,-3,-1,-1,-1
1461662558170191,-3,-1,0,-2,2,0,1,-1
1461662558184238,7,-1,-3,-2,-3,-1,-2,0
1461662558184238,3,0,3,1,2,-1,-1,-1
1461662558191205,-10,0,-4,0,-1,-3,1,-1
1461662558191205,-2,-2,-4,-8,0,-2,-1,-1
1461662558206229,5,-3,-1,6,3,1,1,-1
1461662558206229,2,0,-3,-4,-1,1,-1,0
1461662558214220,-8,-1,-1,-14,-9,0,-2,-1
1461662558214220,1,1,1,24,13,2,1,0
1461662558229291,6,0,-2,-2,-1,-2,0,1
1461662558229291,-1,-2,3,3,-1,0,-2,-3
1461662558230234,-9,-2,-2,-2,-1,-1,0,-4
1461662558230234,-2,1,-3,-10,-10,-2,0,-2
1461662558244247,1,1,5,5,-1,-1,-1,-2
1461662558244247,2,1,-2,-2,-1,-2,-1,0
1461662558251313,-4,2,3,1,0,-3,-1,-1
1461662558251313,-4,-1,-3,-4,-2,1,-3,-2
1461662558266279,1,-2,-2,0,1,-2,-2,0
1461662558266279,0,-4,-8,-9,-5,-1,-2,-1
1461662558274271,-4,-1,1,6,-1,-2,-2,-2
1461662558274271,-3,-1,-1,-3,-2,-4,-2,-1
1461662558289280,3,1,-1,-11,-4,-3,-2,-1
1461662558289280,2,-2,3,8,4,3,2,-1
1461662558290276,-5,0,-3,1,2,-1,-1,-2
1461662558290276,-3,-2,-3,-1,-1,0,-1,-1
1461662558304313,1,-3,2,2,-3,1,1,-1
1461662558304313,3,1,1,-4,-3,-2,-2,-3
1461662558311298,-3,-3,1,7,7,2,1,-1
1461662558311298,2,2,-2,-11,-5,-1,-2,1
1461662558326308,3,2,1,9,2,-1,-2,2
1461662558326308,1,-3,3,4,-2,-3,0,-1
1461662558334321,-7,-2,0,1,-2,-1,-1,-5
1461662558334321,-8,0,-2,0,3,3,1,-2
1461662558349317,2,1,-3,0,0,1,1,0
1461662558349317,5,-2,-6,-5,-2,-1,-1,2
1461662558350317,-2,0,-2,-1,-4,-3,-4,-1
1461662558350317,-1,-2,1,-6,-4,-2,-1,0
1461662558364326,1,0,-1,-7,-7,-3,-2,-2
1461662558364326,2,-1,-2,1,1,0,-1,-2
1461662558371370,-4,-2,-3,-2,0,1,0,-4
1461662558371370,-2,1,1,3,1,0,-2,1
1461662558386382,0,-1,-1,-2,-1,1,0,0
1461662558386382,1,-1,-2,-1,0,-1,0,-2
1461662558394387,-2,-1,-3,-3,-4,-2,-1,-3
1461662558394387,-3,-1,0,1,-2,-3,-1,-1
1461662558409371,0,-3,0,2,1,-2,-2,0
1461662558409371,1,1,-1,-7,-2,-2,0,1
1461662558410360,-3,-2,1,1,-1,-1,0,0
1461662558410360,-3,-1,-5,-4,-1,-3,-1,-1
1461662558424399,-1,-2,-3,-3,-2,1,-1,1
1461662558424399,3,0,-3,2,1,3,1,1
1461662558431404,-2,0,0,0,0,2,-1,-1
1461662558431404,-1,-1,2,-3,-5,-3,-2,0
1461662558446414,0,-3,-5,-6,-2,0,-1,-1
1461662558446414,2,0,1,-1,-2,-3,0,-2
1461662558454406,-1,-2,-2,-2,-4,-2,-2,-2
1461662558454406,-1,-1,-3,-5,-5,0,2,0
1461662558469417,0,-4,-4,-6,1,-1,-2,0
1461662558469417,4,0,4,19,5,3,2,0
1461662558470403,-2,-2,-6,-5,-3,-2,-1,-2
1461662558470403,-1,-2,-2,1,-2,-1,-1,-2
1461662558484444,3,2,-1,-5,-3,-1,1,0
1461662558484444,2,-1,-4,-7,-3,-2,-2,-2
1461662558491433,-4,-1,-3,-1,0,1,-1,-1
1461662558491433,-3,1,-3,-3,-4,1,-1,-2
1461662558506440,1,1,3,1,2,2,1,0
1461662558506440,-3,-4,-4,-4,-5,-5,-4,0
1461662558514441,-5,-3,-4,-2,3,0,1,-2
1461662558514441,-4,-2,0,2,2,-3,-2,0
1461662558529444,0,-1,-2,-2,-1,-2,-1,0
1461662558529444,2,-2,-3,-4,-4,-1,0,-1
1461662558530444,-6,-2,-3,-8,-3,-2,0,-3
1461662558530444,-3,-1,6,18,11,0,-1,0
1461662558544454,1,-4,-1,2,-1,-1,-1,0
1461662558544454,2,-1,-3,-5,-3,-1,0,0
1461662558551460,-2,0,0,-4,-5,-1,-1,-1
1461662558551460,-2,-1,-2,-9,-6,-4,-1,0
1461662558566471,0,-2,2,8,1,-1,-1,0
1461662558566471,3,1,-1,-5,2,0,0,-1
1461662558574475,-6,-2,0,5,2,-1,0,-2
1461662558574475,-3,-1,-2,-2,0,1,0,-1
1461662558589520,-3,-1,0,-5,-2,-3,-1,-2
1461662558589520,2,-3,-3,-3,-3,0,-1,-1
1461662558590489,0,0,-8,-5,-3,-4,-3,-2
1461662558590489,-4,-1,9,2,1,2,-1,-1
1461662558612502,2,3,2,6,1,-2,-1,1
1461662558612502,-2,-6,-6,-11,-3,2,-2,-1
1461662558612502,-1,2,5,14,7,2,0,0
1461662558612502,-3,-1,-3,-5,0,-3,0,0
1461662558626524,3,-2,-4,-4,-5,1,-1,1
1461662558626524,3,1,4,14,4,0,-2,1
1461662558634525,-4,-4,-2,-12,-3,-1,-3,-3
1461662558634525,-3,-1,-3,3,-2,-3,-2,0
1461662558649587,2,-2,-2,-2,-3,-2,-2,-2
1461662558649587,3,-1,1,0,-2,0,0,0
1461662558650531,-3,-1,-1,-4,-5,1,-1,-3
1461662558650531,-3,1,-1,0,-2,1,2,0
1461662558663563,1,-1,-4,-4,-2,-2,0,1
1461662558663563,2,0,-2,-1,-4,-2,0,-3
1461662558671571,-3,2,2,8,3,-1,-1,-3
1461662558671571,-3,-2,-2,1,-1,-1,-2,-2
1461662558686579,2,0,-1,-4,-2,2,1,2
1461662558686579,0,-2,0,-5,1,0,-1,0
1461662558694576,-4,-1,2,3,2,0,0,0
1461662558694576,-2,0,3,4,-2,-3,-2,-2
1461662558709587,2,-1,-5,-2,0,-2,-2,0
1461662558709587,3,2,-8,-14,-2,-2,2,0
1461662558710574,-7,-4,11,21,4,-1,0,-2
1461662558710574,-3,-1,-6,-3,-2,0,-1,1
1461662558723620,1,-2,2,-4,-1,-1,-2,0
1461662558723620,2,0,0,5,0,-1,-1,-2
1461662558731626,-2,0,-5,-10,-5,-2,-1,-2
1461662558731626,-3,-1,-1,-1,-3,-5,-1,0
1461662558746698,1,-3,2,2,0,-1,0,-1
1461662558746698,0,-4,-5,-5,-4,-2,-1,-4
1461662558754693,-2,-2,-2,-1,-1,-1,-1,-2
1461662558754693,-4,0,0,-3,-1,1,-2,-2
1461662558769703,1,-2,-2,1,-2,-2,-1,-1
1461662558769703,2,0,2,6,4,0,-2,-1
1461662558770677,-4,-2,-5,-9,-5,-2,0,-1
1461662558770677,-2,-1,-4,5,1,-1,-2,0
1461662558783701,0,0,0,-11,-9,-2,-1,0
1461662558783701,1,-3,-5,6,0,1,-1,-3
1461662558791706,-3,-1,0,-8,4,-1,-3,-3
1461662558791706,-5,-2,-4,4,9,1,1,1
1461662558806717,-3,-1,4,-2,-3,-3,-2,-1
1461662558806717,2,1,2,4,0,-1,0,0
1461662558814718,-2,0,-5,-7,-4,-3,-3,-4
1461662558814718,1,-4,-3,-3,-5,-2,-2,-1
1461662558829756,2,-2,-2,1,-1,2,0,-1
1461662558829756,2,1,0,-4,-4,-2,0,0
1461662558830732,-3,0,0,2,0,0,-2,-1
1461662558830732,0,1,-1,-8,-5,-4,-3,-1
1461662558843766,0,-3,0,12,2,1,2,-2
1461662558843766,-1,-4,-2,-3,-2,-2,-2,-2
1461662558851772,-3,1,-1,-1,-2,1,1,-2
1461662558851772,-5,-1,-1,-4,-3,-1,-1,-1
1461662558866745,4,1,0,0,5,-1,-1,1
1461662558866745,5,0,2,1,1,1,0,-2
1461662558874778,2,2,0,2,2,0,2,0
1461662558874778,-26,-4,-1,6,5,3,0,1
1461662558888760,-13,1,0,-4,-3,-5,-3,-1
1461662558888760,46,-1,-6,0,-2,-2,0,-4
1461662558896794,29,2,0,-1,2,1,0,0
1461662558896794,-33,-1,-5,-12,-8,-3,-4,2
1461662558903785,-28,0,4,7,0,1,0,0
1461662558903785,20,-3,-6,-5,-5,-1,-3,-3
1461662558911790,22,-3,1,3,-2,-2,-1,-5
1461662558911790,-25,-1,-4,-5,0,0,1,1
1461662558926801,-27,-1,-4,-8,-2,0,-1,2
1461662558926801,18,-3,1,2,3,0,-1,-1
1461662558934831,20,-2,-1,-1,-1,-1,0,-2
1461662558934831,-24,-1,2,0,0,0,0,1
1461662558948841,-18,1,-3,-5,-5,-4,-1,-1
1461662558948841,18,-1,-1,-12,-8,-3,0,-4
1461662558956808,13,0,-6,-2,6,1,0,0
1461662558956808,-21,0,5,14,6,-2,3,3
1461662558979836,-9,1,3,2,-1,0,-1,-1
1461662558979836,15,-1,-3,-6,-1,-1,-1,-4
1461662558980824,3,-3,-3,-10,-7,-4,-2,-4
1461662558980824,-17,-1,-1,-1,-2,0,6,1
1461662558986887,-6,-5,1,1,0,0,-3,-3
1461662558986887,13,0,2,9,6,0,-1,-4
1461662558994904,-3,-4,-1,-12,-9,-5,-7,-2
1461662558994904,-12,-2,-5,-8,-3,-2,-4,-1
1461662559008869,-4,-1,-5,0,3,1,3,1
1461662559008869,10,-2,4,-2,-2,1,0,0
1461662559016874,1,-3,-3,4,-2,0,-5,-3
1461662559016874,-9,0,4,-1,-3,-2,0,-2
1461662559031885,-5,2,2,7,5,0,4,3
1461662559031885,9,0,-3,-4,-3,-3,-3,-1
1461662559032867,3,1,-1,8,-1,-2,-2,-1
1461662559032867,-10,-2,-5,-10,-4,-1,-3,-3
1461662559046871,-4,-4,-3,0,-4,-2,2,2
1461662559046871,10,1,1,3,5,2,0,2
1461662559054876,-2,-1,6,-2,-4,-1,17,2
1461662559054876,-5,0,-7,-3,4,2,-16,2
1461662559068900,-3,-1,-4,-4,-2,-2,-7,-5
1461662559068900,6,-3,-1,1,-3,-4,-16,-5
1461662559076904,-6,1,-3,-6,-2,-2,0,-5
1461662559076904,-11,0,4,2,-2,0,5,-1
1461662559091915,1,0,-5,-7,-2,-1,1,3
1461662559091915,6,-2,-5,-5,-5,0,6,-1
1461662559092915,-4,0,2,-2,0,-3,-6,-2
1461662559092915,-8,-1,1,15,6,1,5,2
1461662559106912,2,-2,-5,-7,3,-3,-7,-1
1461662559106912,4,-2,1,-1,-5,-2,2,-3
1461662559114931,-4,-3,-5,4,5,2,-4,0
1461662559114931,-9,-2,-1,-11,-8,-3,-3,0
1461662559128941,-1,1,-6,-15,-5,0,1,-2
1461662559128941,7,-1,7,13,6,2,1,-1
1461662559144979,-7,0,-1,-4,-4,-4,-2,-3
1461662559144979,-7,-2,-1,0,3,2,-2,2
1461662559151984,-10,0,-4,-12,-6,-2,-2,0
1461662559151984,1,-1,6,13,-1,-4,-4,-1
1461662559152960,5,-1,-7,2,4,-1,-3,-2
1461662559152960,2,1,7,14,6,2,6,3
1461662559166956,12,9,2,5,-2,4,15,4
1461662559166956,7,-18,-4,3,3,-1,-15,-2
1461662559174979,-6,-1,-5,-9,-7,-2,-15,-10
1461662559174979,-10,-5,2,-8,-5,-5,4,2
1461662559188989,2,-4,5,20,12,4,-12,-1
1461662559188989,1,-1,4,-3,-2,-4,3,-9
1461662559197039,-17,3,-3,-6,-6,-10,-11,2
1461662559197039,-5,-3,4,12,1,0,-1,3
1461662559212016,1,-3,-8,0,-3,-1,8,1
1461662559212016,0,3,-3,-11,-9,3,9,-1
1461662559212996,-14,-4,-11,-2,7,2,3,-2
1461662559212996,-6,6,4,-20,-14,-4,2,-1
1461662559226999,6,-13,1,24,13,1,-1,-2
1461662559226999,4,19,-10,-20,-6,-1,-1,-3
1461662559234021,-17,-12,-2,7,2,0,6,1
1461662559234021,-10,4,7,2,-5,-3,-1,2
1461662559249075,14,6,11,6,8,3,0,0
1461662559249075,4,-3,0,8,7,3,1,0
1461662559257036,-8,11,13,-7,-9,7,14,9
1461662559257036,-10,-8,-37,-17,-6,-7,-26,-11
1461662559280052,7,-21,-6,-17,-16,-7,9,-1
1461662559280052,3,19,1,16,16,3,-40,-9
1461662559281039,-25,-15,0,2,-8,-14,-4,-3
1461662559281039,-4,-1,6,12,4,-1,9,12
1461662559286056,5,3,-22,-41,-15,-2,-1,1
1461662559286056,1,0,14,18,0,-11,-7,-6
1461662559294103,-51,-9,-4,-11,-1,4,-11,-16
1461662559294103,-8,6,13,10,6,6,15,0
1461662559309055,14,-5,-1,3,2,1,1,2
1461662559309055,0,-10,-3,-19,-19,2,18,1
1461662559317120,-18,10,-2,29,26,6,0,4
1461662559317120,-9,-10,11,-3,5,-1,-2,-2
1461662559332101,15,1,2,10,6,6,16,0
1461662559332101,3,-3,-8,-19,-4,5,3,2
1461662559333074,-6,12,10,0,-4,8,47,13
1461662559333074,-7,12,-11,-5,8,6,-23,8
1461662559347084,5,-21,-6,0,-2,-20,-44,-14
1461662559347084,0,17,18,19,-1,-5,11,-7
1461662559354108,-21,-19,-2,9,-3,-9,-33,-3
1461662559354108,-5,6,-7,-11,-14,-5,10,-8
1461662559369118,8,-11,2,-4,4,7,1,4
1461662559369118,-2,25,3,-36,-19,-3,48,8
1461662559378105,-28,-5,-10,13,22,11,-11,4
1461662559378105,-5,0,5,17,4,-6,-12,2
1461662559393128,33,13,5,4,-1,0,25,8
1461662559393128,1,9,6,8,5,1,-31,-10
1461662559394115,-27,-19,-9,-11,-4,-5,-10,-18
1461662559394115,-8,-2,-9,-21,-8,3,14,2
1461662559406124,17,25,8,-4,-7,0,29,19
1461662559406124,2,-8,-18,-7,6,6,9,13
1461662559414131,-16,22,15,-14,-14,-5,-26,-18
1461662559414131,-10,-21,-20,4,-1,1,-21,-18
1461662559429160,15,23,24,41,17,7,1,4
1461662559429160,3,4,-7,5,-5,-23,-34,-3
1461662559437167,-19,-24,-19,-22,-7,-10,-29,0
1461662559437167,-4,3,9,-20,-17,4,38,11
1461662559452172,8,-1,-6,22,17,10,-13,-13
1461662559452172,-2,-15,-10,-3,-1,-6,-21,-7
1461662559453172,-24,-5,-11,-3,-2,-2,19,5
1461662559453172,-5,-8,1,-6,-18,-5,33,0
1461662559466226,26,20,14,-19,10,8,4,18
1461662559466226,0,-33,-4,-1,-1,-4,-42,-15
1461662559474194,-31,-23,-26,-1,-8,-15,-39,-23
1461662559474194,-6,-16,6,9,9,0,1,5
1461662559489185,3,21,-7,17,-2,0,17,8
1461662559489185,1,12,8,-18,-7,10,50,4
1461662559497247,-32,17,0,3,8,24,62,10
1461662559497247,-8,-20,-6,0,-2,-22,-26,-2
1461662559512229,10,-23,-22,-68,-50,-35,-90,-20
1461662559512229,3,-14,12,51,28,6,16,-15
1461662559513202,-2,25,29,37,7,6,3,-4
1461662559513202,-9,-5,-18,-25,-8,7,13,14
1461662559526238,10,4,0,28,23,1,-5,11
1461662559526238,-5,-26,-10,-4,-2,6,3,-12
1461662559534231,0,14,13,-31,-19,-3,21,1
1461662559534231,-1,20,3,39,25,-5,-25,2
1461662559549242,-2,-22,-10,-49,-39,-8,5,15
1461662559549242,-2,6,9,1,4,5,37,9
1461662559557231,-13,0,16,32,9,-5,-27,-12
1461662559557231,1,-9,-7,-2,6,-8,-66,-23
1461662559572241,3,1,-10,4,-11,1,12,-9
1461662559572241,-5,-14,-1,-31,-16,3,16,-6
1461662559573256,-13,2,-15,-26,15,13,25,8
1461662559573256,-8,15,12,6,-5,-9,-5,8
1461662559588254,0,-34,7,7,1,1,-3,-6
1461662559588254,0,6,-28,15,6,9,45,8
1461662559594309,-20,-18,14,-37,-28,-10,-57,-15
1461662559594309,-7,-23,-2,6,21,10,15,5
1461662559609280,-7,-19,-20,11,20,5,38,13
1461662559609280,-1,88,20,20,-8,0,12,8
1461662559617314,-14,76,29,11,1,17,27,2
1461662559617314,-7,-3,-17,-28,-16,-11,-22,-7
1461662559632296,-13,63,0,20,5,-12,-62,-9
1461662559632296,-8,-43,-27,-33,-4,-10,-51,-11
1461662559633297,-23,61,10,20,2,-14,21,3
1461662559633297,-5,-30,23,1,-14,5,53,17
1461662559646352,3,-64,-15,-26,-11,8,64,-2
1461662559646352,-4,-76,10,16,15,-3,-91,-12
1461662559654359,-10,-31,1,20,11,-15,-28,-3
1461662559654359,-7,-92,-10,-14,-1,8,7,3
1461662559669368,4,-74,10,-7,-14,-6,15,-5
1461662559669368,-5,-92,-10,23,6,6,20,2
1461662559677329,-20,-40,-10,-34,-23,-2,1,-20
1461662559677329,-11,44,-3,-21,5,4,13,-2
1461662559700385,18,17,17,31,22,21,32,4
1461662559700385,4,-61,2,-11,-14,-5,-20,1
1461662559701334,-10,32,7,8,9,-30,-47,-3
1461662559701334,-6,106,-25,0,-5,5,81,28
1461662559706349,7,19,-9,-6,-3,-4,-91,-12
1461662559706349,-3,-7,2,11,-2,-10,34,-16
1461662559714401,-12,22,-6,-10,-12,1,-15,5
1461662559714401,-7,46,-5,-1,-5,-15,-32,-20
1461662559729411,18,-10,5,-3,5,-2,-2,9
1461662559729411,-2,-21,-22,-22,-5,0,19,2
1461662559737417,-16,19,-8,20,12,9,24,4
1461662559737417,-5,30,29,1,-7,8,-5,-6
1461662559752427,8,9,-1,75,37,11,-3,-12
1461662559752427,-1,-15,17,-25,-29,-13,-4,2
1461662559753386,-20,-15,-32,-44,-5,19,63,19
1461662559753386,-9,16,-21,-42,3,10,-20,-3
1461662559766438,-8,34,33,87,38,-9,-62,-16
1461662559766438,0,127,-20,-1,-10,-38,-43,-21
1461662559774397,-3,78,-1,-6,-18,-8,85,15
1461662559774397,-5,59,0,-22,5,33,-7,5
1461662559789395,13,-37,-13,-64,-30,-26,-59,-13
1461662559789395,-6,-84,-5,4,0,-6,38,7
1461662559797459,-10,-34,17,22,9,-3,-62,-17
1461662559797459,-5,-20,-2,-9,-21,5,56,8
1461662559811423,14,-29,-21,-24,7,14,27,13
1461662559811423,0,-54,26,-11,5,0,-31,7
1461662559819522,-4,-14,-10,-14,-28,-7,5,0
1461662559819522,-5,-2,26,78,41,15,49,0
1461662559826480,11,-1,19,-28,-9,14,-4,9
1461662559826480,0,-31,-21,23,7,-10,-24,-13
1461662559834497,-13,-11,-41,-46,-7,-6,-16,-14
1461662559834497,-7,47,-12,-18,11,7,-3,-7
1461662559849501,-56,26,39,39,-19,-2,-5,6
1461662559849501,-19,-34,-63,-21,3,-8,-16,0
1461662559857502,48,-6,8,10,18,7,49,12
1461662559857502,11,4,-20,-44,-12,-7,-9,17
1461662559871558,-43,-2,64,-4,-11,11,-30,-21
1461662559871558,-34,-31,-23,62,32,-19,-83,-18
1461662559879517,11,6,0,22,15,-27,-51,-11
1461662559879517,3,11,0,2,-10,-1,23,8
1461662559886570,37,-5,-30,-61,-15,-4,60,23
1461662559886570,-10,-13,33,-12,-15,15,7,-15
1461662559894532,-30,1,-22,-15,-17,13,-3,1
1461662559894532,-9,8,27,58,17,-14,-20,-10
1461662559908539,17,-10,-26,-67,-5,-3,16,-1
1461662559908539,19,-11,46,55,27,15,6,9
1461662559917601,-13,7,4,63,32,20,90,18
1461662559917601,-15,5,-17,-77,-27,9,-19,-12
1461662559931601,16,-8,-6,-44,-50,-22,-76,-30
1461662559931601,9,-6,4,41,60,14,33,31
1461662559939561,-13,6,-11,-16,1,-10,-16,-1
1461662559939561,-16,5,-13,-59,-76,-7,-67,-24
1461662559946617,6,-4,-49,98,76,-11,90,33
1461662559946617,-1,-19,4,-39,-13,-15,-78,4
1461662559953622,-2,-6,31,33,28,25,-22,-66
1461662559953622,3,2,-18,-7,12,-2,-19,9
1461662559968661,-3,1,-23,-114,-82,-62,-44,-4
1461662559968661,-7,-4,31,-41,-39,2,71,17
1461662559977622,14,6,32,65,42,39,48,27
1461662559977622,-1,10,22,42,21,4,-39,-49
1461662559991689,-7,1,0,5,14,27,37,12
1461662559991689,-10,-8,13,11,-3,3,23,-4
1461662559999694,23,8,-29,-90,-56,-7,-14,-7
1461662559999694,9,10,-6,66,49,10,25,10
1461662560014659,-23,-8,6,-11,-2,-9,-21,9
1461662560014659,-26,-5,29,-33,-20,29,69,10
1461662560015636,9,5,-21,-46,-33,-49,2,-11
1461662560015636,47,9,6,-42,-27,-7,-88,-4
1461662560028651,-53,-3,-9,93,34,-14,5,-3
1461662560028651,-23,-1,-56,-89,-43,-5,-7,-21
1461662560037676,-11,4,12,39,7,50,30,33
1461662560037676,46,-1,23,64,38,-55,-102,-21
1461662560051672,-9,0,1,-40,-32,-38,-48,24
1461662560051672,-55,-5,-8,-1,1,5,-2,-22
1461662560059705,0,2,-5,-38,-19,13,38,9
1461662560059705,27,11,-15,-57,-54,-21,48,16
1461662560075683,-12,-8,29,42,39,46,20,1
1461662560075683,-2,-1,-13,-34,12,-1,11,-5
1461662560076678,-5,4,34,34,21,-9,-47,4
1461662560076678,7,2,-27,12,-6,-3,12,-3
1461662560088686,10,-8,4,29,11,22,45,-4
1461662560088686,-17,-2,-6,-44,-18,-5,-53,-34
1461662560096704,-13,2,-63,-54,1,-1,-48,-13
1461662560096704,11,3,24,70,-8,-44,-1,25
1461662560111715,13,-10,10,19,7,11,46,16
1461662560111715,-2,0,-10,7,15,18,57,7
1461662560119721,12,-5,13,-21,-28,-3,-49,-35
1461662560119721,-20,7,12,40,29,-10,-74,24
1461662560134731,-14,-8,-24,-13,-11,-28,-50,2
1461662560134731,0,-1,20,19,-7,9,30,-7
1461662560135732,-3,4,-17,-57,-51,-13,5,-24
1461662560135732,7,7,2,-41,15,34,70,12
1461662560148768,-37,-14,19,21,38,31,50,-3
1461662560148768,6,4,-47,-9,23,7,-12,-7
1461662560156747,2,6,11,78,13,-16,-21,0
1461662560156747,14,0,12,0,10,11,22,14
1461662560171747,7,-6,24,-63,-56,-9,-9,-7
1461662560171747,16,1,8,16,32,8,-1,9
1461662560179763,1,7,-9,-22,6,10,77,28
1461662560179763,-10,4,5,-10,-4,9,-27,-30
1461662560194799,9,-6,-4,-3,-16,-18,-52,-15
1461662560194799,-23,0,-15,-12,-25,-33,-54,10
1461662560195767,35,4,13,10,3,-36,20,46
1461662560195767,1,0,-4,2,2,-9,80,5
1461662560208790,-3,-10,-14,-13,14,89,0,-33
1461662560208790,-16,2,2,7,-22,-20,-68,-31
1461662560216795,-2,5,7,18,9,13,-16,10
1461662560216795,-4,-3,-3,-30,-22,-9,33,18
1461662560231806,19,-3,-31,6,-2,-19,13,-7
1461662560231806,11,8,27,40,40,22,52,8
1461662560239812,-4,-2,11,-4,7,-12,-25,-16
1461662560239812,8,2,-5,18,17,3,-10,3
1461662560254837,-15,-9,-17,-3,-12,-14,11,-3
1461662560254837,0,6,4,3,-8,0,-1,1
1461662560255806,-22,2,-1,39,10,-9,-27,-8
1461662560255806,11,-1,16,-6,-5,2,-10,-2
1461662560268843,1,-8,-1,-12,-1,-2,-3,12
1461662560268843,6,5,-1,13,-8,-1,12,2
1461662560276851,26,-2,-2,-14,-4,5,1,5
1461662560276851,-16,1,-16,-10,-13,5,-1,-7
1461662560291847,-5,-8,0,2,-1,-2,14,19
1461662560291847,-5,3,-2,2,-5,-43,-47,-32
1461662560299853,3,0,2,-12,-4,24,-38,-14
1461662560299853,3,-1,0,7,4,34,13,-3
1461662560314859,6,-5,-3,-24,-5,-3,26,1
1461662560314859,-25,6,13,-20,-12,9,38,2
1461662560315859,-14,3,-6,8,15,-14,-5,-9
1461662560315859,-4,-3,11,26,10,-8,4,5
1461662560328916,19,-5,16,29,25,7,-8,1
1461662560328916,20,8,-2,1,7,1,6,6
1461662560336921,-45,-2,-5,-3,1,-11,-16,-6
1461662560336921,-23,-11,-5,-10,-5,-2,-13,6
1461662560351931,49,5,-4,-12,-16,-17,5,-5
1461662560351931,26,11,-5,-8,-18,0,-17,0
1461662560366884,-29,-12,2,-8,2,6,-8,4
1461662560366884,-44,-7,-15,-6,0,-1,5,6
1461662560374890,37,0,-4,-2,-1,-3,7,-19
1461662560374890,31,10,0,8,5,23,25,5
1461662560375891,-34,-12,-11,-14,-17,-21,-30,-4
1461662560375891,19,-21,3,-6,-9,-32,-33,-3
1461662560388899,32,57,1,11,-1,3,-14,-20
1461662560388899,28,67,-26,-36,-20,-9,6,8
1461662560396905,-20,-1,13,39,22,17,33,3
1461662560396905,-20,-26,-2,-5,-1,2,2,5
1461662560411916,32,-18,13,0,4,-10,-1,-4
1461662560411916,6,12,-2,-2,9,12,8,-9
1461662560419920,-26,-15,-4,-11,-6,-1,-5,11
1461662560419920,-12,-22,1,6,1,-7,-6,1
1461662560434989,18,-13,-10,-8,-6,-16,-11,-10
1461662560434989,-1,33,-4,-11,-9,-1,2,-3
1461662560435960,-7,-21,5,-5,-6,-27,-14,4
1461662560435960,-7,-10,4,5,2,21,5,1
1461662560450993,14,127,-1,-13,-4,12,11,5
1461662560450993,-9,-52,-1,10,-5,-15,-12,-3
1461662560456959,-7,-128,-2,-2,-7,-3,6,9
1461662560456959,-12,-128,-1,6,-2,-10,-6,-8
1461662560471965,3,-80,-7,-9,0,1,-20,-20
1461662560471965,-10,33,0,13,4,-7,7,0
1461662560479971,-12,-22,-13,-65,-35,-8,3,-8
1461662560479971,-23,-22,-7,11,16,7,21,9
1461662560494977,8,93,38,64,26,2,-15,0
1461662560494977,-3,127,-7,-2,12,-4,-27,-4
1461662560494977,-9,109,8,6,-5,-1,2,6
1461662560494977,-4,82,-7,-28,-13,3,8,2
1461662560508988,4,103,-16,-37,-11,7,17,-3
1461662560508988,-11,78,7,5,0,5,5,-2
1461662560516993,-9,59,4,22,7,-7,0,5
1461662560516993,-3,85,-3,-7,1,4,-10,-3
1461662560531003,-2,74,-8,0,-5,-13,-2,-3
1461662560531003,0,63,0,-10,-10,4,2,2
1461662560540010,-5,-40,3,3,6,14,-5,4
1461662560540010,16,-52,-3,3,-6,0,5,-7
1461662560555020,2,-51,-7,-17,-10,-15,-2,6
1461662560555020,-14,-71,3,2,-5,-1,-4,-2
1461662560555020,-4,-52,-3,4,1,-8,-13,-8
1461662560555020,-27,-30,6,5,5,-1,7,3
1461662560569030,0,-57,-17,-29,-9,-1,4,-4
1461662560569030,-2,16,9,24,15,4,-4,-7
1461662560577046,-14,7,1,16,7,10,1,-4
1461662560577046,19,-24,5,7,9,3,1,4
1461662560592079,1,-24,0,1,-5,-2,-4,3
1461662560592079,-23,-25,-3,-6,-6,2,0,1
1461662560600111,3,-52,-3,-15,-9,-4,-8,-4
1461662560600111,0,-3,-3,-6,-11,-14,-9,-7
1461662560615088,-5,-7,-7,-2,1,11,5,-1
1461662560615088,-5,14,5,-3,2,1,-1,0
1461662560615088,-7,15,1,10,8,-22,-7,1
1461662560615088,5,-1,-3,-5,4,40,9,0
1461662560629098,-1,1,5,3,3,12,5,-3
1461662560629098,-10,13,-7,-1,-4,-3,0,1
1461662560637076,-4,2,2,-2,2,-8,3,1
1461662560637076,-4,-12,-3,-1,-2,-8,-4,-2
1461662560651084,1,-8,-11,-12,-8,14,1,-5
1461662560651084,-7,10,5,-1,3,5,4,5
1461662560660091,-5,2,-2,2,0,-2,1,4
1461662560660091,3,-4,-1,2,-3,-17,-11,-4
1461662560675101,-2,-23,-1,7,0,-8,-2,-3
1461662560675101,-11,-2,0,-1,-5,-4,0,1
1461662560675101,-4,6,1,-4,-1,8,0,2
1461662560675101,-1,14,-3,-6,-2,-3,-1,-5
1461662560690119,-2,-2,-8,-13,-5,-7,-4,-6
1461662560690119,-10,-6,1,7,5,1,2,2
1461662560696117,-3,10,-1,-7,-4,2,-2,2
1461662560696117,4,8,-2,0,0,-2,-2,-5
1461662560720134,-2,4,-1,1,-4,-9,0,-4
1461662560720134,-9,9,2,-1,0,1,0,2
1461662560721134,-5,8,3,1,2,10,4,6
1461662560721134,2,-19,-12,-14,-7,-8,-2,-5
1461662560735175,-2,-3,1,1,1,-1,-4,-2
1461662560735175,-11,0,-5,-5,-6,-12,-4,2
1461662560735175,-3,10,2,4,2,4,-2,4
1461662560735175,5,10,3,1,1,7,3,-4
1461662560749214,-2,9,10,5,-1,-3,-1,-3
1461662560749214,-10,-7,-14,-6,-1,3,1,4
1461662560757163,-5,-2,-2,0,3,-4,1,-1
1461662560757163,3,-2,-1,2,0,-7,-5,-5
1461662560771230,-2,5,11,5,-1,0,2,-4
1461662560771230,-10,-2,-12,-12,-10,-2,-2,2
1461662560780178,-4,-17,-13,-7,-1,2,-1,-2
1461662560780178,5,2,-2,-2,-1,-3,-1,-2
1461662560794219,-2,-2,0,7,11,1,2,0
1461662560794219,-15,-1,14,9,5,-1,-2,3
1461662560802250,-4,7,13,-8,-7,0,-2,-1
1461662560802250,-4,-1,-2,-5,-3,-5,1,-5
1461662560809208,-3,-6,-6,-9,-6,-4,0,-1
1461662560809208,-7,-5,-2,0,-1,1,-1,1
1461662560817261,-5,2,-5,1,2,5,0,1
1461662560817261,0,0,4,3,0,-4,-1,-4
1461662560831241,-4,-1,-4,-3,-3,-2,-2,-2
1461662560831241,-4,-3,-5,-2,-3,3,1,-2
1461662560840247,13,-1,-4,4,1,-1,0,-1
1461662560840247,-1,-1,3,2,-1,-7,-4,1
1461662560854244,-76,-6,-2,-3,3,0,2,4
1461662560854244,-70,-1,0,3,0,0,0,1
1461662560862250,12,-1,-4,0,-1,1,-1,-4
1461662560862250,38,-1,1,0,-2,-1,-2,-3
1461662560877248,-23,1,-5,-8,0,-1,-3,2
1461662560877248,-42,-4,1,0,0,-1,-1,0
1461662560878244,21,-2,1,-2,-4,0,0,-6
1461662560878244,40,0,1,5,3,2,0,-2
1461662560891402,-16,-5,1,11,4,0,0,1
1461662560891402,-33,1,-4,-5,0,-1,-2,2
1461662560899408,16,-4,5,2,-2,-2,-3,-4
1461662560899408,29,1,-5,-14,-7,-4,0,-2
1461662560914418,-17,-3,-4,0,-3,-2,-1,0
1461662560914418,-26,0,6,2,-1,0,0,0
1461662560922380,12,-4,-14,0,0,1,-2,-2
1461662560922380,18,2,-2,-11,-6,-2,-2,-1
1461662560937435,-12,1,-1,1,-2,-2,-1,-1
1461662560937435,-17,5,6,0,-1,-2,-1,-2
1461662560938389,11,4,7,2,0,-1,-1,0
1461662560938389,12,-8,-9,-1,0,-1,2,-2
1461662560951405,-13,-7,-13,-4,-5,-3,-1,-2
1461662560951405,-14,-3,-1,2,2,0,0,2
1461662560959391,7,0,3,3,1,1,1,1
1461662560959391,12,2,1,2,-2,-4,-3,-1
1461662560974403,-7,0,2,0,-3,-1,0,-1
1461662560974403,-10,1,0,-3,0,2,0,0
1461662560982408,2,-2,-4,-19,-6,-1,-1,-4
1461662560982408,11,3,9,21,6,1,0,-2
1461662560997424,-7,-3,0,-1,4,0,0,-1
1461662560997424,-14,1,6,1,4,3,-1,-1
1461662560998420,5,0,-3,2,0,0,-2,0
1461662560998420,8,-2,2,-3,-4,-3,-3,1
1461662561011448,-6,-1,0,-5,-4,-2,-2,-1
1461662561011448,-12,-2,-4,-8,-5,-4,-2,1
1461662561019454,-1,-3,-2,0,-1,-1,-1,-1
1461662561019454,6,-4,-5,-5,-3,-4,-1,0
1461662561034447,-1,2,-2,-3,-3,0,-1,0
1461662561034447,-4,-2,-4,-3,-2,-2,-2,-4
1461662561042509,6,2,-1,0,-3,-4,0,-2
1461662561042509,4,-2,-6,3,2,-1,-1,-3
1461662561057563,-3,-3,-4,-10,-4,0,0,-2
1461662561057563,-8,-2,1,3,0,0,-2,-2
1461662561057563,2,0,3,3,2,0,0,2
1461662561057563,3,-1,-5,-4,-1,1,-3,-1
1461662561071575,0,4,0,-3,-3,-1,-2,1
1461662561071575,-11,-3,0,4,0,0,2,-1
1461662561087585,-1,-2,7,14,6,1,0,0
1461662561087585,4,1,0,-2,0,1,0,0
1461662561093589,-4,-4,-3,7,2,0,-1,-2
1461662561093589,-4,1,0,-2,-5,-3,-2,-1
1461662561102595,0,-1,-5,-6,-5,0,-3,2
1461662561102595,3,0,5,-9,-4,-2,-2,-1
1461662561117607,1,1,-5,3,4,1,2,1
1461662561117607,-11,-7,-5,-2,-1,-3,-2,-3
1461662561117607,-1,0,-3,3,1,-2,-1,0
1461662561117607,3,-2,1,-8,-6,-1,0,0
1461662561131616,3,3,5,-4,-2,-3,-1,-2
1461662561131616,-9,-2,-1,1,1,-1,-1,-3
1461662561140611,0,-2,-1,-4,-7,-3,0,0
1461662561140611,1,-2,0,0,1,2,2,-1
1461662561153658,1,-3,-2,-5,1,-1,-2,1
1461662561153658,-3,1,0,4,1,1,0,2
1461662561162648,-2,-7,-7,-7,1,0,-1,-1
1461662561162648,5,1,1,4,0,-2,-2,-1
1461662561177641,0,0,0,7,1,-2,1,-2
1461662561177641,-3,-2,-5,-8,-4,-2,-2,0
1461662561177641,-3,-1,-1,-9,-4,-2,-1,-2
1461662561177641,6,2,0,9,-1,-1,1,2
1461662561191686,-4,-8,-6,-10,-7,-1,-3,-4
1461662561191686,-2,5,0,-7,6,5,-1,1
1461662561199754,-4,-3,-6,-2,-3,-1,-2,1
1461662561199754,-1,-2,8,20,7,-1,-2,-2
1461662561213719,1,2,2,-1,-2,-2,-2,-2
1461662561213719,-7,0,-1,-2,-7,-3,0,-1
1461662561222707,-2,-2,-6,-3,2,2,1,0
1461662561222707,4,-2,-2,-10,-5,0,0,-1
1461662561237738,-2,-3,-2,-3,-3,-2,-1,-3
1461662561237738,-6,-1,-1,-1,0,-1,-3,-1
1461662561237738,-5,-2,2,-2,-3,-3,-2,-1
1461662561237738,0,-3,-8,-6,-6,-3,-3,1
1461662561252747,3,0,-1,-1,-1,0,0,1
1461662561252747,-6,-3,-2,0,-2,-1,2,-1
1461662561259751,-1,-1,3,5,1,-1,-1,0
1461662561259751,3,0,-5,-21,-1,2,1,-2
1461662561273761,1,-5,-4,11,4,-1,-1,-1
1461662561273761,-4,-2,2,6,2,-1,-2,-2
1461662561281767,1,3,2,8,2,0,1,0
1461662561281767,2,0,0,-7,-7,-5,0,0
1461662561296827,0,1,-8,-15,-4,-1,0,-3
1461662561296827,-6,-4,0,9,-3,0,-1,-2
1461662561297761,-2,2,4,0,5,-1,1,1
1461662561297761,4,2,1,3,2,0,1,1
1461662561311784,0,-2,3,2,0,-1,-1,-3
1461662561311784,-2,-1,-6,0,0,-2,0,-1
1461662561319837,-3,-6,-4,-8,-4,-4,-2,-2
1461662561319837,5,0,-3,0,0,1,0,1
1461662561333847,-1,-3,4,2,0,-1,-1,-2
1461662561333847,-6,-1,-2,-4,0,-2,-1,-3
1461662561341791,-1,1,-2,-1,-4,-2,0,0
1461662561341791,1,-4,-4,-3,-3,-3,-1,-1
1461662561356815,0,1,1,-1,-2,1,0,0
1461662561356815,-5,-1,-2,-5,-1,-2,-3,-2
1461662561357804,-3,-3,-4,0,3,1,-1,-1
1461662561357804,1,-3,-1,3,1,-1,-2,-2
1461662561371885,0,-1,-10,-16,-4,0,0,2
1461662561371885,-6,0,13,17,-2,-5,0,-1
1461662561379843,2,-1,-4,7,4,-2,-2,0
1461662561379843,6,-1,-5,-7,-4,1,-2,-1
1461662561394831,-1,-4,-3,-3,-3,0,-2,-5
1461662561394831,-7,-1,-8,-18,-5,0,-1,-3
1461662561401835,-1,-3,5,-3,-3,0,2,1
1461662561401835,5,0,-1,1,3,1,1,1
1461662561416845,3,2,0,3,-1,-1,-1,-3
1461662561416845,-6,0,0,-2,-4,-2,-1,-3
1461662561417847,-4,-1,-2,0,-3,0,-1,0
1461662561417847,2,0,-1,-9,-1,-1,0,0
1461662561431913,-1,-3,3,3,0,-3,-1,-1
1461662561431913,-6,-2,-6,-3,0,1,0,1
1461662561439891,-1,-1,-4,-6,-5,1,-1,1
1461662561439891,2,-2,-1,1,-1,0,-3,-3
1461662561453929,2,-1,1,5,2,0,-2,-1
1461662561453929,-4,0,1,0,-1,-3,1,-1
1461662561461888,0,-1,-3,-2,0,-1,1,0
1461662561461888,2,0,3,2,-5,-4,-1,0
1461662561476899,0,-1,-4,-6,-2,0,-3,-1
1461662561476899,-5,-1,5,5,5,1,-2,0
1461662561477888,-2,-1,0,-1,-4,-3,0,0
1461662561477888,3,2,-2,0,-2,-4,-1,-1
1461662561491968,2,0,-4,0,-1,-1,1,-2
1461662561491968,-7,0,-5,-9,-3,-1,-3,-3
1461662561499974,0,1,10,1,-3,0,-2,-2
1461662561499974,5,1,0,14,11,4,3,2
1461662561513938,-1,-2,-2,-4,1,-1,-1,-3
1461662561513938,-3,1,-6,0,-2,1,1,-1
1461662561521944,-1,-1,2,-2,-1,-3,-1,-1
1461662561521944,2,-6,-5,-6,-5,-1,-1,1
1461662561536955,-2,-1,2,6,-1,0,-1,-2
1461662561536955,-5,-3,1,3,2,-3,-2,-2
1461662561537955,1,-1,-6,-6,-2,-1,-1,1
1461662561537955,2,-3,0,1,0,-1,0,-1
1461662561551953,-2,0,1,2,-1,0,-1,-2
1461662561551953,-5,-2,0,-3,-1,-2,-2,0
1461662561559959,-1,-3,-4,1,1,-1,-1,0
1461662561559959,2,-2,0,-3,-2,0,-1,0
1461662561573995,-5,-5,-3,-15,-6,-5,-3,-3
1461662561573995,-5,2,-2,5,5,-1,-2,-1
1461662561582000,1,0,8,22,5,0,1,0
1461662561582000,3,0,2,-2,-3,-2,0,-1
1461662561597010,1,1,-1,1,1,2,-1,-1
1461662561597010,-4,0,1,-8,-2,-1,-2,1
1461662561597974,-5,-8,-15,-13,0,1,0,0
1461662561597974,4,-2,0,-7,-3,-1,-1,-2
1461662561610993,1,-1,1,9,2,-2,1,-1
1461662561610993,-5,-3,-1,-4,-3,-1,0,-1
1461662561620047,1,3,1,-4,2,-1,-1,1
1461662561620047,0,-2,-2,-2,-3,-3,-2,-1
1461662561643006,-1,-1,-1,-4,-2,-2,0,-2
1461662561643006,-6,-1,-1,-4,-4,0,1,-3
1461662561644007,0,-2,-3,0,2,2,0,0
1461662561644007,3,-2,-3,2,3,3,-1,-2
1461662561657023,3,1,6,4,3,1,-2,-1
1461662561657023,-3,0,-3,0,-6,-1,1,-1
1461662561658017,2,2,-1,-11,-8,-5,-1,3
1461662561658017,1,-1,2,6,4,-1,0,1
1461662561672062,-3,-1,-2,2,4,1,0,-1
1461662561672062,-6,-3,-3,3,5,1,-1,0
1461662561680060,0,-1,-1,0,-3,1,-1,0
1461662561680060,5,-1,-4,0,-3,-4,-1,0
1461662561694039,-3,-1,-7,-11,-13,-4,-1,-4
1461662561694039,-3,2,8,6,7,3,1,2
1461662561702046,-1,1,3,3,4,0,-1,0
1461662561702046,4,2,-1,-4,-3,-1,-3,1
1461662561717057,2,1,-2,-1,1,0,1,-2
1461662561717057,-8,-2,-3,-3,-5,-2,-3,-3
1461662561725062,-1,-3,-1,4,3,-3,-3,-1
1461662561725062,3,-2,-3,-3,-1,-1,-1,1
1461662561731066,-1,0,1,-1,-2,-1,1,-2
1461662561731066,-3,-2,-6,-7,-4,-1,-2,0
1461662561740075,1,-1,5,3,2,0,0,0
1461662561740075,2,-2,-3,0,3,-2,2,-1
1461662561754084,0,1,-1,-5,-1,-4,-2,-3
1461662561754084,-4,-2,3,13,5,0,-2,-3
1461662561762088,-1,-2,-4,-10,-3,0,0,0
1461662561762088,4,-1,-1,0,1,2,-3,-3
1461662561776097,-4,-1,2,-2,-2,1,-1,-1
1461662561776097,-5,-3,-5,1,-2,-1,4,0
1461662561785134,-1,-1,-2,-7,-3,-3,-1,1
1461662561785134,3,3,8,12,3,1,2,-2
1461662561800179,-1,-1,-1,10,4,0,-1,-2
1461662561800179,-4,-1,-3,-7,-6,-3,-5,-1
1461662561801119,0,-2,-1,2,-2,-1,-1,1
1461662561801119,1,-7,-8,-7,-6,-1,0,-1
1461662561814154,-3,-3,0,-6,-5,-5,-3,-2
1461662561814154,-8,-2,-4,-5,-6,-5,-2,-2
1461662561822139,4,5,-3,-4,-2,-1,0,1
1461662561822139,4,-2,2,-7,-1,-2,-2,-2
1461662561836171,1,0,-5,8,1,1,0,-1
1461662561836171,-5,-2,6,10,3,1,-1,-2
1461662561845163,1,1,7,14,2,-1,-1,-1
1461662561845163,3,1,-3,-6,-5,-1,0,-2
1461662561851195,-2,0,0,-6,0,-1,-1,-2
1461662561851195,-5,-1,-5,-13,-7,-1,-3,-1
1461662561860176,-1,-2,-3,-1,2,1,1,3
1461662561860176,4,-2,-7,-6,1,-1,-2,0
1461662561874180,0,-3,-1,1,1,0,-1,-1
1461662561874180,-4,3,0,0,0,-3,-1,-1
1461662561882212,-5,-8,-6,-12,-8,-3,-2,-4
1461662561882212,3,2,4,2,1,0,0,2
1461662561896223,2,0,-7,-7,-2,-2,0,0
1461662561896223,-5,0,-4,-6,-3,-2,-4,-1
1461662561905206,-3,0,1,8,-1,-2,-2,-1
1461662561905206,1,-8,-1,0,-2,0,0,-1
1461662561920258,-3,-6,-2,-4,-2,0,-1,-4
1461662561920258,-6,-1,1,-2,1,-1,1,-2
1461662561921201,0,3,-2,-7,-1,-2,-1,0
1461662561921201,4,2,0,-4,-2,-1,-2,-2
1461662561934275,0,-1,-4,0,-5,-1,-3,-4
1461662561934275,-5,-3,1,-4,1,1,-3,-2
1461662561942246,0,0,-3,0,3,1,0,-1
1461662561942246,3,-1,2,4,-1,-1,-1,0
1461662561956229,2,0,7,8,2,1,1,0
1461662561956229,-8,-1,-7,0,2,-2,2,-1
1461662561965234,-5,-1,2,4,-2,-3,-1,1
1461662561965234,4,2,-3,-15,-4,-2,-2,0
1461662561980245,-1,0,-1,4,1,2,0,-3
1461662561980245,-3,-3,2,9,3,0,1,3
1461662561981246,1,1,-2,-10,-7,1,-1,1
1461662561981246,7,1,3,11,6,1,1,0
1461662562003277,-3,-3,-2,-7,-3,-2,-1,-1
