1,0,0,0,0,0,0,0,0
2,1,-3,3,-1,-1,-1,0,-1
3,-3,0,-3,-1,-2,1,-2,-1
4,-4,-2,-1,1,2,-1,0,-4
5,0,7,12,3,-2,-2,0,1
6,-2,-4,2,-2,-1,-3,-3,-3
7,-2,0,-2,0,-2,-2,-4,0
8,-3,8,32,8,2,-1,-1,-2
9,-1,-3,-6,-3,-3,-1,-1,-1
10,1,-3,-3,-2,-4,-2,0,1
11,-2,-8,-20,-3,-2,-4,-1,-2
12,-1,-3,-13,-2,0,2,-2,-1
13,-3,-5,-19,-3,0,-1,-1,-4
14,-1,1,-4,-1,-1,-3,1,0
15,-5,-12,-22,-7,-1,-1,-1,-2
16,1,-5,-7,-3,-2,-2,0,2
17,-3,-2,11,-1,-2,0,-2,-2
18,0,0,5,-1,-2,-1,-1,-1
19,-3,-4,2,1,1,-2,-2,-1
20,-3,-12,5,2,4,0,0,-1
21,-8,7,-17,-3,5,-2,-3,-9
22,2,4,0,-1,-4,-1,1,1
23,0,-5,-1,3,3,-1,-1,1
24,-1,-19,14,12,2,0,1,0
25,-2,9,12,-7,-6,-4,-2,2
26,2,10,-2,3,-1,1,-1,0
27,1,0,-6,-2,-4,2,10,2
28,-3,-3,0,4,3,-3,-10,-2
29,1,-7,-33,-8,-2,-2,-4,-5
30,-1,-3,35,-14,-4,2,-1,0
31,5,13,-21,-4,-8,-7,-13,-4
32,-3,-8,-2,2,1,-3,3,-2
33,-6,-33,-85,-14,-11,-15,-43,-19
34,-5,15,10,28,9,7,27,4
35,-2,-32,-66,-24,-5,3,14,2
36,-18,-43,13,-15,-6,-6,-8,5
37,-5,17,41,12,6,6,1,-9
38,25,44,21,10,20,9,4,12
39,16,55,24,-22,-11,12,43,24
40,0,-20,-10,9,-7,-1,52,27
41,14,14,12,24,15,17,77,43
42,-35,-42,-8,-22,-11,0,-52,-34
43,37,30,3,11,3,12,61,40
44,-6,-38,-15,-5,-7,-11,-41,-20
45,23,14,15,-1,-2,-12,-41,-12
46,-19,13,7,-1,-10,-4,3,-8
47,-22,-6,-8,13,12,-17,-76,-50
48,-9,9,-23,-44,-12,-8,-12,-5
49,-3,19,18,15,4,0,-13,-2
50,1,-3,-3,4,6,10,10,-2
51,-13,21,12,-20,-14,-42,-98,-70
52,13,6,-23,-66,-27,-2,-26,4
53,4,0,30,20,-4,-2,-3,0
54,-6,-33,16,14,-6,-17,-91,-46
55,-8,-26,-23,25,23,4,12,6
56,10,1,54,20,6,23,37,32
57,-12,1,36,15,-28,-25,-16,-12
58,4,4,-24,-50,-6,-1,-39,-31
59,1,-6,-126,8,15,-2,29,11
60,-7,-30,17,-1,-4,-22,-17,1
61,-44,-10,13,-17,-10,-7,-72,-87
62,3,-24,-6,7,-6,-36,-99,-36
63,47,5,3,47,42,35,81,58
64,17,34,-56,62,33,22,67,27
65,-3,33,77,1,-13,10,24,-3
66,17,-12,-41,-25,-7,4,7,-3
67,61,-8,10,-17,0,26,81,59
68,-19,-19,-37,-31,-39,-42,-44,-7
69,-39,-32,-38,-9,23,7,-27,-17
70,-11,18,-86,-5,21,4,-5,-3
71,-18,-16,14,37,0,-3,-2,-9
72,-8,12,2,-31,-19,-43,-94,-55
73,-24,-25,57,4,0,21,64,29
74,6,8,-32,7,-4,0,2,9
75,-24,7,29,1,0,0,-7,1
76,38,21,-24,13,17,30,113,69
77,20,-1,11,-34,-21,-26,-112,-43
78,-4,3,-2,6,1,-12,-42,-1
79,3,-25,-14,-5,14,5,8,-3
80,-5,15,-2,-7,-7,-15,-24,-13
81,-18,-47,-77,-2,11,0,12,-10
82,2,5,26,-23,-18,-27,-101,-49
83,-44,-4,3,-26,-21,-15,-27,-21
84,-15,-13,0,-36,-20,-7,-12,-17
85,9,3,4,10,18,26,61,24
86,0,4,-43,-8,-7,-14,-36,-24
87,34,25,29,-7,-5,23,70,42
88,-3,-38,-1,-10,-13,-28,-62,-50
89,14,104,9,41,16,26,76,42
90,-5,-44,0,1,-3,4,11,7
91,-34,-11,0,-6,-4,-2,1,-7
92,-22,27,13,-3,-4,-6,-2,-5
93,20,-10,-12,11,3,9,20,17
94,4,-18,9,-6,5,2,7,3
95,2,-11,12,19,8,1,-2,-5
96,8,-25,-7,-16,-1,10,16,12
97,1,2,3,-6,-3,-7,-11,-4
98,-3,-4,-44,2,1,-1,-6,-3
99,0,4,2,-9,-4,0,3,0
100,7,-10,7,2,1,-1,6,2
101,6,14,11,-5,-5,2,-29,-16
102,0,19,6,-5,-9,-3,13,4
103,-3,-12,-1,-7,-9,-7,-3,-2
104,-1,-18,1,-1,2,4,8,3
105,-8,30,-3,-5,-1,-1,4,3
106,-4,-18,-2,1,-2,-2,2,2
107,-4,-18,-6,-2,2,4,3,-1
108,-1,-14,4,-25,-14,-6,-2,-2
109,-1,-4,1,-2,-2,-2,0,0
110,1,2,1,6,2,2,0,2
111,3,2,6,3,2,-3,-2,0
112,0,7,2,5,2,-4,3,-2
113,-1,2,-8,-1,-1,-4,-7,-3
114,4,10,2,13,7,2,3,2
115,-6,-3,-18,-4,-5,-4,-1,-4
116,-5,4,30,-7,-7,-5,-4,-4
117,1,1,-5,4,1,-1,1,0
118,1,-7,-14,1,0,-1,0,0
119,0,-8,-2,-2,-1,-2,0,0
120,-1,2,9,-2,-1,0,0,0
121,1,1,34,4,2,1,1,0
122,2,-7,-21,1,0,3,2,3
123,-1,10,17,-4,-1,2,0,0
124,-4,-1,17,0,-3,-1,-2,-4
125,-3,0,22,-3,-4,-3,-4,-2
126,-2,3,-10,-7,-1,-3,-2,-2
127,1,11,13,14,6,5,2,1
128,-1,-2,-4,8,7,0,-2,-2
129,-6,-22,-50,-10,-4,-2,-2,-4
130,-9,1,9,-2,-3,-3,-3,-4
131,6,3,-12,6,4,-1,1,2
132,3,7,-3,1,1,2,1,1
133,2,7,-2,1,-1,-2,0,-1
134,2,-2,0,-1,-4,2,0,1
135,-2,-5,15,1,1,-2,-2,-1
136,-2,-8,-14,-3,0,0,0,-2
137,-12,-24,-2,-4,-4,-3,-3,-4
138,1,1,-5,-2,1,0,-1,1
139,2,15,17,-4,-4,-3,1,-2
140,3,6,-5,1,0,3,0,0
141,-2,3,14,3,0,0,0,1
142,0,-10,8,2,1,-2,0,1
143,2,10,9,-7,-3,-3,-3,-4
144,-7,-30,-23,-11,-4,-2,-2,-2
145,0,20,8,2,-3,-2,-1,-2
146,3,16,-15,2,-1,1,-1,0
147,-4,-10,-44,1,2,-1,0,-1
148,-6,-6,43,-5,-8,-3,-2,-2
149,8,8,17,10,6,4,3,5
150,-4,-3,-10,-28,-9,-8,-6,-2
151,0,6,-35,7,1,2,1,1
152,-5,-2,4,3,0,-1,-2,-4
153,-3,-19,-25,2,1,-1,-1,-4
154,7,23,34,6,1,0,-4,-2
155,1,-5,-4,13,8,0,2,2
156,-1,1,8,-4,-5,-2,-6,-1
157,1,1,12,-1,2,2,5,3
158,3,3,13,2,1,1,3,0
159,0,18,5,-7,-4,-1,-1,1
160,2,10,15,12,8,4,2,1
161,0,0,29,9,4,4,11,4
162,-5,-4,-11,-8,-2,-2,0,-3
163,3,18,-8,3,-7,-2,5,0
164,3,-15,-11,-2,-1,4,12,3
165,0,-3,19,14,9,0,-10,1
166,0,-2,23,-1,-1,-6,-16,-8
167,-6,-19,11,16,2,0,6,3
168,5,26,4,-9,-5,0,-1,-1
169,4,6,10,-1,2,0,-6,0
170,-3,0,-15,4,3,1,-2,-1
171,-7,-14,-20,-13,-5,-10,-24,-10
172,-4,-16,-10,-4,-1,-1,2,-3
173,-3,-10,-33,-14,-5,-2,11,4
174,-7,-8,-15,-1,-4,-5,-4,-3
175,-1,-3,-13,-7,7,3,2,-3
176,-2,0,15,-3,-1,3,8,4
177,-5,-35,-50,-23,-13,-12,-41,-15
178,5,-4,1,9,0,1,9,3
179,3,-30,-12,-3,-2,1,8,7
180,-1,13,5,-9,-6,-8,-27,-12
181,3,6,14,-5,-6,0,4,1
182,2,14,2,8,-3,-2,-7,0
183,5,17,27,-2,-2,3,13,10
184,-6,-14,6,-11,-3,-2,1,-6
185,5,-5,18,6,0,1,13,8
186,0,10,-2,-2,-5,-6,-18,-8
187,9,15,-1,4,0,-5,-9,-1
188,-12,-18,-5,-7,9,9,4,-5
189,5,-10,-7,-5,-10,2,7,2
190,4,-8,-26,4,-4,-5,-9,-3
191,-9,-5,-20,-5,3,-7,-12,-21
192,11,19,22,8,4,3,1,3
193,-18,-13,9,-2,4,0,43,8
194,-1,-1,-21,-14,-6,-3,-27,-11
195,-5,6,29,9,0,0,10,10
196,-13,-21,-37,-34,-14,-4,8,-6
197,14,-17,-17,-36,-14,-11,-18,-3
198,-4,9,68,66,21,5,-10,4
199,29,-8,-28,-2,-7,-12,-17,13
200,-6,18,-1,15,14,10,42,14
201,17,14,-23,-28,12,7,30,20
202,-24,-25,11,1,-2,2,-1,-20
203,-13,-51,17,15,3,-12,-39,-18
204,16,-21,-39,-30,-2,7,20,19
205,-60,-9,-27,21,10,-7,-6,-10
206,33,10,-15,13,3,9,7,2
207,-6,17,36,-9,-6,5,5,-12
208,-8,-8,11,7,6,-6,-33,-12
209,-19,15,13,-9,-10,1,66,27
210,41,28,16,32,3,9,21,25
211,-4,-23,104,-10,-23,9,44,15
212,-1,0,-5,-2,5,-6,11,2
213,24,21,-2,40,2,-6,-44,-21
214,-18,9,-61,-30,0,17,75,19
215,-33,2,-26,-47,-20,-19,-54,-43
216,-5,2,-95,10,27,7,17,7
217,-13,-38,-55,-27,-11,-4,-27,-11
218,3,7,7,-34,-24,-18,-96,-37
219,20,15,-38,-9,-6,-10,-9,6
220,-78,-18,58,-6,-18,-34,-49,-65
221,-32,-65,62,-17,-31,7,50,18
222,48,25,-31,15,24,-13,-41,-6
223,-15,-3,115,-1,-28,-11,4,-2
224,-14,-1,-21,10,5,15,37,11
225,-10,2,-29,42,37,9,4,3
226,64,80,-1,8,33,47,121,74
227,0,-29,20,17,-15,-18,-57,-54
228,-43,-24,4,-42,-23,4,13,12
229,25,-29,59,38,40,9,-6,-9
230,-2,-118,-91,-21,11,14,43,25
231,-18,18,16,-23,11,13,29,15
232,48,26,-10,-12,-9,-31,-128,-45
233,-63,-16,-64,-58,-23,6,15,-28
234,22,-15,-7,31,6,11,66,37
235,8,17,-19,7,12,16,32,20
236,-10,3,28,21,-23,-7,-3,-8
237,3,28,26,32,-4,3,44,17
238,-34,-3,10,31,5,-2,-12,-43
239,-38,-28,-22,-26,-20,-39,-100,-80
240,-17,-7,15,-1,1,6,9,3
241,11,1,17,-8,7,6,0,6
242,11,-20,35,-70,-22,9,35,17
243,18,-24,-31,-44,-8,4,2,17
244,-4,85,-101,5,23,5,0,16
245,-29,0,48,15,-12,-29,-65,-52
246,-6,2,12,-2,-8,1,13,3
247,-18,-18,42,37,15,-1,-3,-10
248,17,-14,-30,-12,-14,-1,10,11
249,20,-25,-62,-4,13,13,43,26
250,-45,-35,27,-9,-5,5,-14,-11
251,-14,6,-6,4,-7,-12,73,14
252,4,28,35,-8,-2,9,34,20
253,4,-20,3,-11,6,10,7,10
254,52,6,-23,6,6,3,7,14
255,14,13,72,30,9,-5,1,3
256,-36,-23,10,7,-2,-18,-68,-31
257,-4,33,5,-2,-8,-13,-74,-44
258,-19,-38,-17,-29,-7,15,54,19
259,-17,3,22,17,20,1,3,-18
260,17,-13,11,1,-3,-8,-5,1
261,-5,8,-62,-25,-7,-1,1,1
262,4,-5,-9,12,6,-8,19,8
263,-1,5,-5,25,3,6,12,9
264,-2,-9,28,-13,-6,4,18,9
265,11,-4,-22,-2,4,-3,-4,-4
266,4,-12,3,0,-2,4,8,3
267,1,6,-1,-2,-1,-1,-2,0
268,-5,-21,-12,-6,-3,3,8,0
269,-5,-11,21,-12,-8,5,2,-14
270,-21,-8,20,36,17,7,19,4
271,31,28,-35,15,18,7,22,24
272,1,-1,12,8,-4,-7,-12,-7
273,9,-3,5,5,-6,-2,2,5
274,-10,76,-6,-12,-6,-12,13,1
275,-5,50,13,-7,-6,-3,2,-1
276,-9,24,1,8,2,-6,-12,-6
277,1,-94,1,12,1,1,-1,0
278,-18,-114,12,18,8,-3,-16,-13
279,-10,-22,7,-16,-9,1,-16,-12
280,11,-42,-2,-1,-3,-2,10,1
281,-5,-109,0,2,5,4,-3,-2
282,8,78,9,1,2,7,-6,-1
283,-7,74,-13,-4,-2,-3,0,0
284,4,47,5,1,1,1,-1,2
285,-4,24,5,-1,-5,0,1,-3
286,-16,-17,12,8,4,-5,-5,-5
287,1,-14,-21,13,4,-1,-3,-1
288,19,22,18,-3,-5,-3,0,-1
289,-9,-5,-5,-8,-2,0,2,-2
290,-1,-17,-1,4,-2,-3,-2,0
291,-4,-13,-7,-10,-2,1,0,-2
292,-4,-12,-17,-7,-3,-9,1,-4
293,-2,3,-7,-3,-3,2,-1,2
294,-6,-5,3,-4,-2,0,-2,-3
295,-3,8,-8,0,-3,0,1,0
296,2,5,-8,-7,-2,-4,-2,-1
297,-3,-7,13,-2,1,-2,-2,-1
298,-5,3,-28,-6,-2,-2,-3,-4
299,-4,-15,-5,-14,-10,-4,-2,-2
300,1,4,34,1,-2,-2,0,0
301,0,-6,-30,1,2,-2,-2,-1
302,-1,0,11,-3,2,0,-3,-2
303,0,4,11,-2,-2,-2,-2,-3
304,2,-1,-3,2,-1,2,2,2
305,-3,-4,-23,1,0,-2,-2,-2
306,-1,-10,3,-3,-2,-1,0,-1
307,0,2,-15,2,0,1,0,1
308,-2,-12,-43,7,2,0,-1,-1
309,3,4,18,-5,-2,0,-1,-1
310,-3,-13,-64,-9,0,0,-1,-1
311,0,-1,17,0,2,0,0,1
312,-9,-29,-26,-9,-3,-2,-4,-3
313,-1,3,-3,8,1,3,1,-1
314,-2,-1,-21,-8,-6,-5,-2,-2
315,-3,-4,-1,4,2,-2,-1,-3
316,-7,6,14,-9,-5,-3,-2,-3
317,2,6,8,2,0,-1,-1,-1
318,-2,-10,-1,-2,-3,-1,0,-2
319,0,-3,-1,-5,-2,-3,-2,0
320,-1,-5,-15,9,5,1,-1,-1
321,-11,-36,-4,-8,-3,-3,-5,-3
322,-1,4,-11,3,1,-1,-2,0
323,8,24,9,-1,2,1,2,3
324,-1,-10,-25,-9,-5,-1,0,-2
325,-5,7,7,2,1,0,-2,-3
326,-2,-2,-12,4,1,1,0,-1
327,0,0,-9,-1,0,0,0,0
328,-1,-2,-3,6,-1,-1,-2,-2
329,0,-2,-8,-10,-2,0,1,-1
330,1,-2,-11,-4,-2,0,-2,0
331,0,15,22,-4,-6,-2,-2,-1
332,0,-3,6,-2,-2,-1,0,0
333,3,2,1,3,-1,0,-2,0
334,1,0,-17,3,2,0,0,0
335,-6,-20,-17,-6,-7,-3,-3,-2
336,-1,0,-5,-3,-2,0,0,-1
337,-4,3,22,1,-7,-4,-5,-4
338,-2,-3,-18,-4,0,0,-2,-3
339,4,11,5,2,1,0,2,2
340,2,-1,-3,2,2,-1,-1,1
341,4,2,-5,3,2,1,0,2
342,-6,-12,-31,-9,-1,0,0,-3
343,1,-6,-24,-6,-5,-2,1,-1
344,1,4,3,4,-1,-2,0,0
345,-2,-22,-9,-5,2,2,0,-1
346,-2,6,17,0,-1,-2,-1,-1
347,1,10,41,4,-2,1,0,1
348,-1,-8,-52,-4,0,0,0,2
349,3,-1,4,-3,-3,0,0,-1
350,4,10,0,-2,-1,-1,-1,0
351,0,-10,-30,-1,4,0,1,-1
352,-5,-6,1,1,1,0,0,-1
353,5,6,1,6,2,-1,-1,-1
354,2,-5,6,2,3,1,0,1
355,-3,-7,-23,-1,0,-3,0,-2
356,-2,-6,-8,6,2,-2,-1,-2
357,-5,-6,-30,-13,-7,-1,-2,-3
358,0,11,16,-1,-2,0,0,0
359,0,4,-2,1,-1,1,0,-1
360,1,3,9,-5,-4,-2,-1,-3
361,-7,-7,20,1,-2,-3,-3,-4
362,-4,-8,-4,-3,-4,-2,-1,-1
363,0,12,-4,-2,-3,-1,-1,2
364,-4,-7,5,10,4,1,0,-1
365,6,9,-16,-8,3,2,1,1
366,-4,-18,-5,2,1,-1,-2,-2
367,0,-7,17,-5,-3,-1,4,1
368,-1,-6,-30,-5,-3,-3,0,1
369,3,4,16,-4,-2,1,-1,0
370,1,-6,-16,10,2,2,5,4
371,-5,-6,-25,-3,-4,-4,-2,-4
372,-8,-2,-16,-7,-7,-4,-1,-2
373,-5,-12,-21,-9,-6,-3,-6,-1
374,0,6,2,-6,-6,-5,-8,-8
375,3,3,26,6,-2,-4,-10,-6
376,1,3,-1,5,1,3,5,3
377,5,3,24,12,1,0,-4,0
378,5,-4,-1,-18,-7,3,11,6
379,-2,-17,21,11,10,7,17,7
380,-1,-16,-7,-2,-4,-2,-20,-10
381,-1,4,-12,1,-2,-6,-17,-8
382,-5,0,-9,-10,-5,-10,-15,-7
383,-11,-10,19,10,0,-11,-47,-27
384,5,9,31,13,7,12,34,14
385,-8,11,4,-9,-8,-4,3,-4
386,-1,-6,-17,-9,-3,6,19,10
387,9,1,13,-3,7,0,6,4
388,-14,-31,-9,1,-3,7,26,15
389,11,21,4,7,8,12,34,9
390,8,1,23,-5,0,-5,-20,-5
391,19,-26,-35,41,24,5,9,10
392,-24,-17,40,-20,-11,-6,-34,-21
393,8,10,1,37,23,-6,-25,-11
394,-2,-21,-8,6,-8,4,19,18
395,3,31,8,-7,-16,1,12,4
396,17,-9,19,-6,-4,1,25,12
397,-9,-25,7,-15,-4,5,13,-2
398,-12,-1,-46,-3,8,13,29,4
399,-22,16,10,22,3,-17,-58,-45
400,10,6,10,-6,-6,-13,-49,-12
401,11,-14,0,-15,-15,-9,8,21
402,3,2,-16,-21,-1,-1,-25,-11
403,-16,14,-3,1,-11,-11,-32,-35
404,-6,-15,53,27,-3,3,11,3
405,28,24,23,-20,9,15,53,32
406,16,-2,-68,5,4,10,48,27
407,11,-33,-14,-16,2,4,1,15
408,25,32,-11,-2,4,-8,-36,-13
409,-16,19,-33,38,6,-21,-81,-56
410,-38,-29,-29,-13,-2,13,20,1
411,-46,-37,-42,-6,-5,-19,-34,4
412,-6,-21,-36,1,5,6,0,-5
413,29,20,73,10,-16,-4,-7,3
414,28,16,-22,16,19,-4,11,24
415,-28,-13,24,-46,-25,-7,-9,1
416,-38,-18,26,25,24,15,21,-1
417,5,4,69,-18,9,1,-36,-20
418,45,-7,-46,12,17,22,92,61
419,12,14,-34,-24,-14,-18,-14,-20
420,-28,9,-30,2,-18,-24,-53,-35
421,27,35,2,7,9,-22,-77,-42
422,19,-11,10,14,-3,7,37,15
423,-29,-11,54,-3,9,-15,-35,-17
424,54,-22,21,9,-6,13,79,75
425,-16,13,27,-12,-32,-15,-35,-15
426,16,3,1,36,28,23,33,3
427,11,54,-29,-59,-15,-4,-19,2
428,-14,-31,43,17,5,9,25,16
429,-5,-3,-21,-20,-2,17,82,38
430,10,29,-32,21,29,6,-25,-9
431,-20,4,36,17,-45,-42,-91,-47
432,-3,-58,30,-52,-19,22,70,28
433,-5,-30,-28,34,121,52,65,29
434,-28,-19,-111,-41,-46,-22,-26,-30
435,-6,-34,-19,-21,-3,8,34,19
436,-27,43,5,-22,-21,-33,-70,-47
437,-6,14,17,6,0,0,-15,-12
438,1,11,-37,11,1,5,15,14
439,35,18,18,-4,-5,0,-1,13
440,16,-27,48,11,-3,5,20,10
441,-30,2,20,5,10,12,39,20
442,20,22,28,26,-2,4,20,6
443,-34,-12,-32,-17,-7,-1,-1,-34
444,14,23,58,21,19,9,-13,6
445,-55,-8,-58,32,29,-8,-59,-30
446,-6,-15,13,-37,-23,-3,-11,-8
447,-31,35,5,38,40,20,40,11
448,4,1,10,-18,-27,-28,-70,-46
449,-4,-10,-10,-12,-16,5,19,-2
450,-21,-1,23,-35,-27,5,31,9
451,25,-19,-6,-13,-6,-14,-27,-12
452,-25,-17,-43,49,35,28,95,52
453,4,-4,23,-16,-2,-15,-74,-43
454,-27,-16,-16,-94,-7,-6,-20,-23
455,12,-9,-30,18,26,6,6,6
456,-75,-4,-23,54,8,-25,-77,-88
457,-14,-14,-37,-60,-24,-14,-44,-2
458,-50,5,23,22,8,-32,-109,-68
459,42,5,9,-5,-10,8,50,36
460,-16,15,18,65,30,-1,-38,-23
461,5,12,5,0,-1,0,9,1
462,-26,7,8,-15,0,-4,-8,-14
463,9,-15,15,-11,-12,10,46,20
464,32,-22,1,-2,-1,19,68,49
465,16,-14,-16,-24,-20,-3,17,9
466,6,-32,-5,5,12,13,22,20
467,-9,28,6,2,-8,-7,-24,-19
468,-12,-23,-11,-20,6,-5,-12,-11
469,-6,0,13,42,-4,-3,-4,1
470,-4,11,8,8,-5,-3,-4,-10
471,-13,16,-3,3,-2,0,-8,-5
472,-1,1,17,16,-7,4,28,7
473,0,-8,28,2,9,0,-29,-11
474,-17,27,-35,5,5,-5,-13,-11
475,9,5,18,-2,-5,-1,5,5
476,-3,13,-19,2,-7,-6,3,0
477,15,8,-6,-15,-7,3,9,8
478,6,0,-12,5,0,-2,6,7
479,-23,6,-17,-29,-5,-7,-18,-14
480,1,-34,-41,-35,-25,-5,-3,-5
481,-2,3,2,32,12,1,6,2
482,4,5,8,25,8,-2,1,2
483,-3,-24,13,0,-3,0,-2,0
484,3,16,4,11,6,10,1,-1
485,-2,31,0,-6,-4,1,10,1
486,-1,27,-4,8,0,-8,-9,-3
487,0,30,0,-3,2,4,0,1
488,5,18,12,13,7,0,0,-2
489,1,-5,9,-2,6,-3,-2,1
490,-6,-25,-24,-9,-3,-7,-2,-4
491,-6,-8,-8,-8,-6,-3,-2,-5
492,-1,1,0,-7,-9,-2,-4,-3
493,-4,-3,-5,-5,-2,-9,-12,-2
494,6,1,3,1,4,4,0,1
495,1,13,9,6,5,4,3,0
496,-2,-2,9,-4,-5,-1,-6,0
497,-2,-3,-9,0,4,-2,2,0
498,-6,-11,-36,-16,-7,-5,-2,-3
499,-2,-7,6,4,-2,-1,-2,-3
500,-1,-3,-4,-2,0,0,-2,-2
501,-1,-1,-5,6,8,3,3,2
502,1,9,14,3,-1,0,-2,-1
503,-2,-18,-36,-3,1,-4,1,-2
504,0,4,6,-4,-6,-2,-3,-2
505,3,3,8,2,0,0,2,1
506,-3,-6,5,-3,-4,0,-1,-2
507,-1,9,8,0,2,-5,0,-1
508,1,-5,-11,-18,-8,0,-2,0
509,-1,3,12,6,3,-3,0,-1
510,-4,-7,-9,1,2,-2,-2,-2
511,-1,6,14,-1,-2,-2,-1,-2
512,0,-3,-10,-3,0,-1,-1,0
513,-2,-3,4,0,-1,-1,0,-2
514,2,10,15,-4,0,-1,1,1
515,-1,-6,-18,1,1,0,-2,-2
516,-3,-7,-11,-2,0,-2,-1,-1
517,2,7,6,-3,-2,0,0,1
518,-3,-10,-8,-2,-4,0,0,-1
519,-1,2,10,6,2,1,2,0
520,-1,1,10,-7,-5,1,0,-1
521,0,-6,0,2,8,1,0,-1
522,1,1,8,2,2,0,0,1
523,-1,-10,-34,-6,-3,-3,-1,-1
524,1,-2,3,4,2,-1,-1,0
525,-1,2,1,7,1,1,-3,-1
526,1,3,3,-1,-2,0,-1,-1
527,0,-1,0,1,2,0,0,2
528,0,-3,-3,9,5,1,0,0
529,0,2,7,0,2,1,1,1
530,0,-17,-12,0,-2,-1,-1,-2
531,-3,-3,8,-6,-5,-2,-1,-1
532,-2,4,9,0,0,-1,-1,-2
533,-2,-5,-4,-2,-2,-1,-1,-1
534,-3,-16,-29,-8,-4,-3,-2,-1
535,-2,-10,-18,13,10,0,-1,-1
536,1,2,15,-2,-2,-1,-1,-2
537,2,19,21,-3,-2,-2,1,-1
538,-1,-9,-25,1,-3,-1,-2,0
539,-1,8,20,-2,-5,-1,-1,-2
540,-3,-4,-15,-6,-8,-1,-4,-4
541,-1,2,2,3,1,0,1,1
542,-3,4,14,-4,-3,-1,0,-1
543,-4,-10,-6,-4,-2,-2,-3,-3
544,-1,-3,-10,1,-1,0,0,-1
545,2,3,3,-1,0,1,0,0
546,-3,-6,-4,-4,-2,-2,-1,-1
547,-2,-2,8,-1,-3,-3,-3,-3
548,-2,-8,4,-3,4,0,-1,0
549,-3,0,-10,-12,-3,-2,-3,-4
550,-2,1,8,-2,-3,0,0,0
551,1,-2,-12,-1,2,0,1,1
552,-1,3,3,0,-3,0,-1,-3
553,-2,-7,-9,-4,-2,-3,-2,-2
554,-2,-2,-14,-3,-1,-2,-1,-2
555,-1,0,0,1,0,0,-2,-1
556,-7,-4,-9,-2,0,-1,1,-1
557,0,3,6,-1,-1,0,-1,-1
558,2,1,5,5,2,0,-1,-1
559,-2,-2,4,5,1,-2,-2,0
560,3,-1,-1,-3,1,-1,-1,-1
561,-2,-2,-3,0,-3,-3,-2,-3
562,0,2,6,-1,2,0,-1,0
563,-2,1,-11,-1,0,0,-2,-3
564,0,-2,1,-1,2,0,-1,-2
565,2,-4,2,0,-4,-1,0,-1
566,-1,4,7,4,3,0,0,-1
567,-5,-9,-11,0,-3,-3,-2,-2
568,0,5,16,8,6,2,-1,0
569,-1,0,0,-6,-2,-2,-2,-1
570,-1,-2,6,-1,-1,1,-1,-1
571,0,-4,-15,-6,-4,-1,-1,0
572,-1,-3,6,2,3,0,-1,0
573,-1,1,23,4,1,0,0,-1
574,-3,-6,-37,-8,-1,-3,-1,1
575,-2,0,2,-1,-2,-3,-1,0
576,1,-2,-5,-2,-3,-2,0,-2
577,1,2,5,-4,-3,-2,0,-1
578,-2,-4,0,0,-1,-2,-2,-2
579,-1,-4,-11,-5,-7,-2,-3,0
580,-1,-9,-16,-6,1,0,-1,1
581,-1,0,0,2,-1,-1,-2,0
582,-2,-3,15,0,-3,-2,-2,-2
583,-1,-2,11,-2,0,-1,-2,-1
584,2,6,-5,5,1,-2,0,0
585,-1,-5,0,-6,0,2,-1,-1
586,1,2,0,5,2,1,0,-1
587,1,9,-1,1,0,-1,0,1
588,1,-3,-3,-1,0,0,1,-2
589,1,-6,-1,8,7,0,-2,-1
590,-3,-4,-2,-1,-2,1,0,-2
591,-5,-1,-8,1,2,1,3,-5
592,0,-5,0,0,-2,0,2,1
593,1,-6,10,-8,-5,0,1,2
594,-3,-12,-17,-3,-2,-2,-1,0
595,-3,2,-8,-5,-4,-3,-1,-4
596,0,3,6,-6,-1,1,5,2
597,-1,0,-7,-3,-1,-1,8,1
598,0,-6,-11,-2,1,-1,-5,0
599,4,1,0,6,4,-1,-2,0
600,-3,-4,14,6,0,-2,12,4
601,-2,3,1,3,0,1,-5,-3
602,-1,-2,-8,-6,-4,-3,3,-6
603,-6,-6,-5,0,-4,-3,-6,-4
604,-3,2,-14,-15,-11,-3,-3,-2
605,-5,-3,1,-2,-3,-4,-9,-6
606,-5,1,-4,-4,-5,-8,-11,-7
607,4,-4,2,-5,0,2,9,6
608,-3,-11,-36,18,6,4,7,3
609,-4,-1,43,45,15,2,0,-4
610,1,26,-32,-7,3,1,-11,-2
611,-6,-43,-26,10,6,0,-1,-2
612,-5,0,11,-3,5,3,9,3
613,-5,1,2,-18,-2,0,-2,-1
614,2,0,-16,0,0,-2,0,4
615,9,27,14,6,12,10,31,15
616,-14,-24,-57,-13,-6,-6,-5,-14
617,7,-13,22,-16,-14,4,17,16
618,-20,27,-6,6,1,-8,-23,-33
619,-13,26,28,4,-1,2,15,9
620,27,8,0,-19,-2,4,-5,4
621,-11,-8,11,12,-1,-12,-53,-30
622,-5,0,22,-20,-6,6,39,19
623,0,0,3,-3,21,5,0,5
624,-5,9,3,-5,-7,4,27,13
625,7,-1,38,16,7,3,25,15
626,-11,-32,-25,-12,-11,2,2,9
627,-7,-1,-5,-14,-8,9,49,21
628,4,6,7,-40,-22,-28,-83,-48
629,-12,-33,-11,-26,-15,-10,-24,-11
630,-35,-19,2,12,6,3,29,7
631,3,8,-14,-5,2,8,34,21
632,10,-10,-9,-23,-28,-16,-9,3
633,-40,4,-29,0,0,-14,-45,-30
634,1,-11,-30,-4,-3,-1,35,7
635,73,23,25,-14,-1,21,69,48
636,-26,-3,35,28,0,-10,-16,-13
637,-5,10,54,-8,-15,-5,-6,-7
638,-36,-11,-69,-26,-9,-4,18,8
639,-7,-14,-9,-26,-1,1,31,-8
640,39,28,7,12,19,11,4,14
641,30,-19,-31,50,16,10,5,19
642,-40,-20,71,13,-10,-8,-2,-7
643,-48,-15,-15,-9,1,14,51,7
644,-16,4,-9,-30,-27,-9,-29,-16
645,33,12,-22,12,2,2,4,15
646,-20,1,33,18,19,5,-6,-11
647,2,-2,6,-1,-9,-6,-20,-41
648,-18,9,25,-24,-1,7,32,13
649,19,-2,40,3,-4,-14,-32,-17
650,-36,-28,13,-36,-1,1,27,-1
651,-9,14,30,-5,-20,-11,-48,-25
652,-34,-6,-54,62,0,-34,-83,-45
653,-13,-6,71,-40,-4,-14,-56,-13
654,-16,-13,14,3,-1,2,-26,-28
655,19,26,32,10,3,10,34,18
656,16,-23,-5,18,-13,-15,-60,-35
657,-4,4,-28,-46,-3,-4,-7,-2
658,-66,-8,-99,26,8,-12,-46,-27
659,10,30,-79,-11,28,13,6,2
660,34,-29,-24,26,-6,-7,19,31
661,-2,-10,-85,-14,10,9,37,24
662,5,-40,25,-10,3,18,43,21
663,36,13,60,-22,-18,-1,-13,-9
664,12,-3,68,-46,-30,-13,-15,-8
665,-10,-50,34,2,4,4,-7,-6
666,3,-99,-24,-27,-29,-19,-42,-13
667,36,6,81,66,26,26,76,38
668,-47,47,46,-7,17,-9,-95,-76
669,23,7,-27,-38,-27,-26,-59,-25
670,-30,16,36,0,-10,-4,-7,-6
671,16,38,-11,-7,0,17,30,20
672,21,-24,125,37,9,17,35,26
673,-47,14,-43,4,-8,-12,-32,-50
674,-23,5,-29,-16,-13,-4,29,11
675,-58,-4,16,3,-5,-17,-39,-44
676,-17,-11,-58,4,13,9,15,19
677,1,-5,60,-11,-25,-7,-25,-13
678,26,8,-27,-16,3,-4,8,5
679,0,-70,-53,-24,-13,7,-1,4
680,19,60,54,58,48,-6,-50,-26
681,8,-24,19,36,9,2,38,19
682,-22,-29,-87,-53,-19,0,-11,-16
683,13,12,-2,-11,-6,9,41,28
684,28,3,-12,1,6,18,59,37
685,-33,20,11,-19,-24,-41,-109,-61
686,6,19,1,48,35,13,26,15
687,-18,4,-8,-6,0,-7,-13,-16
688,2,2,41,22,-2,-10,-27,-14
689,3,-8,-58,-23,-1,3,26,13
690,-45,17,-19,-16,-9,-26,-83,-35
691,-8,-25,1,3,-8,-5,4,-3
692,8,19,-35,13,4,-4,-5,-2
693,-17,18,-40,-11,-3,-9,-12,-12
694,5,-5,10,-20,-10,-2,3,-1
695,4,8,19,4,-2,6,20,14
696,8,-15,16,-16,-11,1,6,-2
697,-11,-38,-14,7,14,0,-20,-21
698,-16,-7,-2,13,7,-1,-1,9
699,-12,-6,-9,-3,-6,-11,-14,-6
700,1,-5,-9,-14,1,13,21,10
701,1,-10,7,15,13,-1,-3,-4
702,0,-3,-36,-24,-18,-10,-12,-8
703,-7,9,2,-2,-1,-9,-2,-1
704,32,34,3,2,-13,-27,-59,-20
705,-38,-12,9,-20,-20,-9,-21,-22
706,-7,-50,-22,15,10,4,25,8
707,0,-12,-1,-21,-8,3,-5,-1
708,7,-9,-7,-22,2,1,0,2
709,-3,-45,3,13,1,3,2,-2
710,9,28,-1,-12,0,-1,-6,0
711,-3,6,-2,2,-6,-7,-4,1
712,-14,5,6,-2,-1,6,8,-9
713,6,23,3,-2,1,3,6,3
714,-2,24,-6,12,10,4,1,1
715,4,5,19,-6,-12,-4,-2,0
716,-2,12,-11,-3,5,-1,-3,-2
717,0,7,7,22,10,3,3,1
718,-4,1,-2,-9,-2,-2,-1,-1
719,-5,-14,0,-6,-5,1,-1,2
720,1,-10,-5,1,2,-2,0,0
721,-2,-2,6,-5,-5,-8,-6,-2
722,3,-2,-11,3,1,-1,-4,-1
723,-9,-4,-11,-4,-2,1,0,-1
724,-1,4,-7,5,0,0,-3,-2
725,0,1,-2,-11,-5,-2,2,-1
726,0,4,7,-10,-8,-2,-1,-1
727,0,4,-2,-3,3,-1,-2,-1
728,1,2,-8,-3,0,-3,0,-2
729,-3,-3,-1,-7,-6,-2,-2,-1
730,0,-5,-4,5,-1,1,-1,-1
731,0,-1,4,0,4,0,-1,0
732,-2,-3,14,3,1,2,1,0
733,0,7,-5,4,2,1,0,-1
734,-1,-6,-12,3,1,-1,-2,-4
735,-1,-10,-14,-12,-4,-4,-1,-3
736,-4,4,20,-2,-4,1,-1,-1
737,1,7,8,3,3,0,0,-1
738,0,-2,5,2,3,-1,1,2
739,1,1,6,-3,0,-1,-1,-3
740,-2,-8,-19,1,-2,-1,-2,-3
741,1,-10,-12,9,10,0,2,-1
742,-3,0,6,7,4,-1,-1,-3
743,0,-6,-16,1,1,-1,0,-1
744,1,3,8,-6,-5,0,0,-1
745,-1,-3,1,-8,-1,-3,-1,-2
746,-1,1,-1,-3,-4,-2,-1,-1
747,-1,4,20,3,-2,0,-1,0
748,1,-5,12,-3,-2,-3,-1,-2
749,-5,-6,-7,-6,-1,0,-3,-3
750,2,5,8,-6,-2,1,-1,0
751,-1,6,11,9,2,1,2,3
752,-2,-3,-9,-3,1,-2,-1,-1
753,2,7,-1,3,-2,0,-1,-1
754,0,-3,0,1,0,-2,-1,-2
755,-3,-1,14,-8,-7,-3,-5,-4
756,1,0,7,5,5,0,0,-2
757,-1,-8,-27,-4,-1,-1,1,0
758,1,6,8,4,2,2,0,0
759,0,-5,-6,1,-1,-3,-2,0
760,-2,-2,-10,-7,-3,0,-1,-3
761,-3,-6,0,1,2,0,-1,-1
762,-1,0,4,0,1,-1,-2,0
763,-2,-8,-22,-3,-1,-2,-1,-2
764,-4,-16,-36,1,0,-1,-2,1
765,0,1,-6,2,3,-1,0,1
766,0,7,11,-4,-7,-2,-1,-3
767,-1,4,4,0,-2,0,-1,-1
768,-3,-3,8,-4,-5,-2,-1,-3
769,0,-2,2,0,2,1,-2,-2
770,0,-4,-17,-7,-1,0,0,-1
771,0,2,5,-1,-3,-2,0,1
772,-2,1,9,0,-4,0,0,0
773,-2,1,6,3,0,0,1,-1
774,0,-3,2,0,0,0,0,1
775,1,2,-2,-5,-4,-2,-2,-1
776,-1,-3,-2,-5,-3,-1,-2,1
777,-1,1,8,-3,-3,-2,-1,-2
778,-2,-1,0,0,-1,-1,-1,-2
779,0,2,2,3,1,-1,-1,-2
780,-3,-6,-5,0,1,0,-1,0
781,-3,-3,-15,8,4,-1,-2,-2
782,-1,1,-4,-5,-4,-1,-2,1
783,-1,-4,-4,-7,-2,-4,-1,0
784,0,3,10,6,3,2,2,1
785,-2,-6,-18,-2,-2,-1,0,-3
786,2,-4,-3,-1,0,0,0,1
787,-1,4,-17,-5,-4,-3,-4,-3
788,3,6,17,2,-3,-1,-4,-2
789,-1,-2,5,-2,-2,-1,-2,-1
790,-9,-10,-17,-5,-2,-2,-2,-3
791,1,3,2,-6,-2,1,0,-1
792,-1,-6,7,2,-1,-1,-5,-2
793,2,-3,3,-3,-4,0,3,3
794,4,1,0,-1,2,2,2,2
795,-7,-1,10,-2,-3,-5,-12,-7
796,-1,4,2,-5,-2,-2,-6,-1
797,-1,1,5,8,-3,-5,-15,-10
798,4,0,9,4,4,5,11,4
799,2,5,-5,-9,-2,-1,1,-1
800,-2,-1,2,-3,-3,-3,-3,-2
801,-9,-9,-5,-9,-6,-4,4,0
802,2,4,2,2,0,2,12,1
803,7,7,14,-5,-7,-4,3,6
804,-5,-6,-15,13,12,2,8,2
805,-5,-5,-3,10,7,1,0,-3
806,5,8,-10,-23,-10,-1,6,4
807,-3,-4,-7,-7,-7,-4,-5,-1
808,6,-1,-9,5,5,3,4,4
809,2,-4,4,5,2,6,19,9
810,0,0,3,1,-8,-6,-18,-8
811,3,-3,2,-1,-3,-13,-44,-14
812,-10,-1,-3,1,1,-7,-14,-11
813,-8,6,10,-13,-4,2,-2,-14
814,-10,-7,-6,14,3,-2,2,-8
815,0,-8,-9,-16,0,-2,7,5
816,15,3,20,21,4,3,7,8
817,-14,0,-20,-13,-6,-4,-11,-4
818,6,2,-15,-22,-2,1,17,11
819,9,-11,-16,-11,-6,-2,3,7
820,8,4,6,-10,0,2,0,8
821,-13,-12,-19,0,2,-8,-4,-9
822,-10,2,17,-4,-8,-15,-35,-20
823,-10,6,15,-11,-5,-1,-3,6
824,3,-19,3,33,5,3,6,-2
825,7,12,-19,-11,-2,-1,-4,3
826,3,19,44,-9,-13,-3,3,2
827,14,23,10,9,11,4,0,0
828,0,13,-17,8,-1,-5,-42,-18
829,-6,-17,5,-10,-12,-10,-24,-13
830,9,14,4,-1,1,1,6,7
831,-10,-5,-23,-13,-2,0,-4,0
832,0,-36,-31,9,-3,-3,-4,-3
833,-19,-52,28,23,3,-1,5,-20
834,20,11,0,-15,-6,4,38,31
835,-2,-28,-14,-10,-5,-3,-5,-3
836,-11,-2,-54,-8,5,-2,-15,-15
837,16,-5,26,7,15,14,34,19
838,-11,31,-17,-9,10,9,36,17
839,-18,22,27,-9,-3,2,22,0
840,17,-20,37,18,1,-9,-51,-30
841,-6,-6,-19,-5,8,0,-11,-8
842,-26,7,26,20,10,2,10,-8
843,-18,-5,-30,-5,-18,-18,-65,-31
844,40,-5,33,-20,-3,13,67,65
845,-4,49,-34,-1,-2,-3,-38,-34
846,-58,-43,-4,-26,-16,-9,-13,-30
847,24,-6,5,11,-1,2,32,19
848,-21,-1,27,-6,5,-2,16,-1
849,53,-18,5,-21,-3,12,48,42
850,-1,-20,18,39,10,-6,-45,-24
851,-33,24,20,16,4,-12,-33,-18
852,1,16,46,6,-14,4,-10,-17
853,15,8,-42,-34,-5,-4,-1,-4
854,-44,-28,10,14,9,-13,-53,-44
855,64,-9,25,-4,6,20,69,51
856,20,2,84,-2,-37,4,65,23
857,6,2,1,-26,-7,-21,-57,-24
858,-25,-25,-31,29,-8,0,-20,-20
859,1,-23,1,-36,-3,12,5,-4
860,10,9,18,5,-4,-19,-57,-14
861,28,-8,-40,39,38,11,-5,9
862,-21,7,22,-28,-21,-14,-42,-25
863,45,13,-7,26,-19,1,52,44
864,-17,-32,120,46,7,6,42,17
865,12,9,2,78,55,22,61,19
866,-41,-18,8,-31,-13,-28,-46,-46
867,7,-24,-37,-43,-22,18,88,54
868,-65,-34,75,57,3,-28,-68,-48
869,30,4,1,-20,5,26,74,55
870,6,7,-62,-52,-6,0,-36,-25
871,5,-8,29,-23,-24,5,37,36
872,-60,38,-26,36,28,-8,-54,-43
873,-20,-9,-7,36,14,15,59,25
874,-10,-37,-18,-56,-32,3,32,8
875,24,25,29,-1,2,3,0,5
876,-4,12,-44,14,-4,15,89,68
877,16,43,-70,-30,-6,9,44,30
878,4,-6,-2,-7,-10,-24,-50,-61
879,6,-17,17,-24,-21,-1,-16,-15
880,0,-1,19,-7,-10,-6,15,31
881,22,-19,-31,-10,0,-4,-24,-6
882,9,-5,-16,28,11,2,9,9
883,6,44,22,9,14,10,36,12
884,41,17,57,13,-1,-24,-89,-53
885,-84,-36,2,-48,-28,-26,-63,-54
886,11,-4,-4,-26,-3,8,40,13
887,56,8,1,-17,-4,23,104,79
888,-26,-5,-12,-5,-8,-22,-83,-36
889,15,-12,-2,-7,2,8,31,30
890,22,0,-24,1,-7,0,4,-3
891,28,9,68,35,-7,-3,-29,-9
892,-2,9,-78,-6,28,6,0,20
893,0,-41,-41,2,-8,12,100,61
894,-5,-3,9,2,8,-7,-61,-27
895,22,-4,37,-6,-17,-19,-72,-22
896,-9,17,-18,1,8,15,50,15
897,-3,6,-32,-4,5,-2,-14,-6
898,28,11,67,-16,-5,11,27,7
899,-29,-9,11,10,9,15,62,27
900,39,-6,31,22,5,-7,-40,-13
901,-45,-3,-30,12,23,-13,-98,-60
902,4,9,3,20,6,4,16,11
903,-18,-17,26,-33,-6,1,28,14
904,22,14,10,42,17,-2,-10,1
905,1,0,8,0,-1,14,51,26
906,-24,1,-22,0,-5,-19,-67,-39
907,-41,-7,17,51,24,3,30,-5
908,13,4,-25,11,15,3,11,11
909,0,3,38,-22,-16,-5,-38,-14
910,12,19,-10,1,7,9,10,-4
911,9,6,28,-1,-1,10,41,24
912,-23,4,-20,2,-6,-9,-30,-23
913,-15,5,-5,-24,-4,7,38,26
914,12,-11,11,1,2,0,-14,-15
915,18,10,-15,15,6,3,7,9
916,0,8,7,-18,-14,1,14,8
917,1,-19,10,18,-3,3,23,8
918,-16,-45,-9,-8,-9,-10,-20,-17
919,-8,-9,0,-6,-11,-12,-5,4
920,-51,-12,39,-24,2,-16,-36,-35
921,14,10,5,-10,-14,2,10,21
922,6,-1,5,8,-4,-3,5,-1
923,-1,-1,-9,-16,-5,-1,-13,-6
924,6,2,14,10,2,-1,6,6
925,4,-23,-7,-1,3,6,9,5
926,14,-1,-12,-7,-6,-7,9,8
927,14,-2,8,-12,5,21,59,35
928,-2,-3,9,14,12,-11,-48,-22
929,16,-3,15,52,24,24,19,9
930,-12,-18,-19,-24,-9,-5,-6,-2
931,-1,16,13,12,8,-3,-4,-4
932,3,-11,-3,-9,-16,-8,-3,-5
933,-4,-3,-2,-4,-7,4,1,4
934,4,10,-2,-2,3,3,3,-6
935,-2,-6,-12,-4,2,18,-4,0
936,-1,-16,15,-7,-6,3,-6,-2
937,-1,-25,-8,2,5,-25,6,0
938,-5,-104,6,-6,-11,-14,-14,-10
939,-3,-37,-12,-5,-6,-43,-17,-4
940,6,-18,10,3,7,50,12,7
941,1,13,-7,0,-2,-10,-2,2
942,-11,-15,2,-7,-1,3,-13,-2
943,4,3,10,12,5,11,2,1
944,0,2,6,1,-4,-2,-6,-1
945,-2,-4,6,3,-2,16,4,-3
946,-3,-1,10,-5,3,6,7,4
947,5,-6,-15,-1,-4,-17,-7,0
948,3,-9,1,-11,-10,-5,-4,2
949,2,-2,-14,2,2,-4,2,0
950,-1,2,0,-1,1,-4,-9,-2
951,3,2,8,4,-2,-6,-1,1
952,0,-9,-13,2,2,-7,-8,-3
953,-5,-18,-20,-2,-2,3,3,1
954,-3,4,0,-1,-1,4,1,0
955,-3,6,18,10,5,-5,-2,1
956,0,0,-14,-2,-10,-5,-2,0
957,-1,-14,-11,-2,4,2,-3,-1
958,0,-3,-12,-1,-2,-4,0,-2
959,0,4,8,0,3,0,-2,-1
960,-3,1,-4,-7,-4,-3,1,0
961,1,1,2,3,0,1,1,-1
962,-4,-11,7,0,-1,-1,-1,-3
963,0,2,-12,-3,1,1,2,1
964,3,10,2,-3,-2,-1,1,1
965,-1,-4,-7,-7,-1,0,1,-1
966,-1,-7,-19,-4,-2,1,1,-1
967,-2,3,-34,4,6,-2,-1,-1
968,1,3,14,0,0,0,-2,-1
969,-4,-8,0,-5,-6,-1,-1,-2
970,-3,-7,-1,3,-1,5,-1,-2
971,-2,-1,-4,1,1,-1,1,0
972,-6,-8,-3,-2,-7,-4,-4,-6
973,0,10,24,-12,-8,-5,-3,-1
974,-5,-7,-1,7,1,-1,-1,-5
975,2,-1,-12,-2,-1,-3,-1,0
976,0,3,12,3,1,-1,1,0
977,-1,2,-8,-5,-2,2,1,-2
978,2,10,6,6,4,2,2,1
979,-1,-8,-4,-4,-5,-1,-1,0
980,0,11,-5,5,1,-2,-1,-2
981,-1,-5,-19,-7,-4,2,1,0
982,2,2,6,5,1,2,-1,-1
983,-1,-4,-8,-3,-1,-4,-4,0
984,2,-9,-21,1,-1,0,-3,-1
985,-3,-5,-40,-5,-1,-2,0,-2
986,-4,7,21,-4,-2,-1,-1,-2
987,-1,-5,-2,-7,-6,-5,-3,-2
988,-5,-32,-48,-1,5,-1,1,-1
989,1,-9,-41,-5,-4,0,-1,-1
990,-1,3,20,-1,0,-2,-1,0
991,-1,0,33,12,8,1,2,1
992,-2,-16,-28,-1,-1,-1,-1,-1
993,-2,4,6,-7,-7,-1,-3,-3
994,-1,-2,2,1,2,0,0,-2
995,-10,-37,-25,-9,-3,-3,-6,-6
996,1,3,14,4,1,0,0,-1
997,0,-9,-17,-9,0,0,0,-2
998,2,7,5,1,2,1,0,0
999,-1,1,-2,-4,-4,-2,0,0
1000,-4,-16,14,4,4,-2,-3,-3
1001,1,1,-1,7,6,3,2,1
1002,2,-2,-1,0,-2,-1,2,0
1003,1,3,-19,-2,0,0,-2,-2
1004,2,6,10,-1,-3,-4,-2,1
1005,0,1,-2,-1,1,0,0,-1
1006,2,11,18,-2,0,-1,-1,0
1007,0,2,-11,4,0,0,-2,-1
1008,-3,-7,-3,1,2,1,-1,-1
1009,1,14,19,3,-3,-1,1,0
1010,1,3,3,-1,-4,-1,0,0
1011,2,-4,-4,-1,-2,-1,-2,-1
1012,-1,-2,0,-1,-1,1,-2,-2
1013,0,0,6,-1,0,3,2,0
1014,-5,8,3,-1,-4,-3,-3,-2
1015,-6,-16,-6,-4,-7,-1,4,-1
1016,-4,-11,-1,-5,-4,-2,-4,-7
1017,0,16,13,-1,-2,-3,-4,-6
1018,4,10,4,0,1,0,5,-3
1019,0,-2,4,0,-2,1,1,3
1020,1,-3,4,-6,-2,-1,9,6
1021,1,-18,-5,1,-3,-5,-4,-3
1022,-3,-2,4,2,-1,-1,-6,-2
1023,3,2,-3,-2,-1,-1,-12,-3
1024,1,-1,-13,-11,-3,-1,-1,0
1025,-4,8,8,14,2,-1,-10,-3
1026,2,7,23,-1,-3,-2,-8,-2
1027,1,8,6,-9,-5,-4,-7,-4
1028,1,4,-10,1,5,2,11,6
1029,0,-1,-10,-12,-4,-2,-3,-6
1030,1,8,24,14,3,2,4,2
1031,0,1,-36,-3,-1,-5,-3,0
1032,11,12,46,8,1,2,7,5
1033,-11,-29,-75,-14,1,4,5,-1
1034,-1,-13,10,-3,3,-1,0,-4
1035,4,1,31,6,0,3,21,13
1036,-6,-2,1,10,2,3,-11,-12
1037,-9,-9,0,-2,-3,-4,-23,-13
1038,-3,0,13,-10,-1,3,12,6
1039,-4,-16,-39,-4,-2,4,-8,-3
1040,1,11,17,0,-2,-9,-15,-11
1041,-12,-6,29,13,-2,4,12,4
1042,2,21,9,-8,-1,1,4,3
1043,-4,-7,26,12,7,5,19,-2
1044,-6,1,11,-16,-12,-5,4,6
1045,-3,-12,-16,-3,-1,-7,-23,-8
1046,9,4,9,-1,-4,6,33,17
1047,-3,1,16,-5,-2,4,6,5
1048,-1,-3,0,32,18,5,-4,-4
1049,2,4,40,33,10,12,27,13
1050,1,-4,6,-1,-20,-1,11,8
1051,0,23,14,22,33,6,14,5
1052,4,33,-1,-7,3,-3,-29,-11
1053,5,11,12,-6,-5,-5,-4,-3
1054,2,-19,13,-10,-3,-2,24,1
1055,0,-14,-31,-17,-12,-4,-14,-5
1056,1,20,2,4,4,0,13,5
1057,-32,-36,10,-15,-2,-2,15,-4
1058,5,22,-14,-4,0,-6,-34,-19
1059,-26,-37,-5,24,-2,-10,-18,-8
1060,7,20,25,10,16,19,70,35
1061,-22,-6,1,-9,-3,1,24,5
1062,21,7,3,14,2,-15,-65,-27
1063,-21,7,11,-28,-16,-5,-8,-9
1064,-21,1,-69,-13,4,-3,11,-4
1065,-7,-14,5,19,-3,-9,-36,-11
1066,37,18,10,-10,0,2,18,22
1067,-21,-3,-20,-5,-3,5,11,-2
1068,14,-22,32,13,-2,0,22,5
1069,-70,-6,13,13,14,34,79,2
1070,-25,-43,-106,-46,-5,-16,-23,9
1071,29,0,-4,-22,5,13,16,18
1072,-30,5,-14,19,13,4,30,5
1073,19,-56,-44,-8,-2,-21,-90,-43
1074,22,43,10,-17,-27,-11,15,21
1075,-52,-23,43,11,-5,-2,-2,-10
1076,-25,-22,0,-20,-16,-26,-89,-45
1077,20,20,5,2,5,17,33,15
1078,80,47,34,21,10,46,115,67
