timestamp,emg1,emg2,emg3,emg4,emg5,emg6,emg7,emg8
1461662751599317,-1,-5,-14,-5,-6,-2,-1,0
1461662751599317,-1,3,15,-3,-1,-1,-1,0
1461662751608324,1,0,-3,13,7,-1,-3,-1
1461662751608324,0,0,1,-10,-4,-2,-2,-2
1461662751622346,1,2,-3,-10,-7,-2,-1,0
1461662751622346,-4,-5,-2,5,3,-1,-2,-2
1461662751629338,0,-2,-1,4,0,-2,-1,2
1461662751629338,-3,0,2,-16,-4,-2,-3,-2
1461662751645349,-1,-1,12,14,-2,-1,-1,-2
1461662751645349,-1,-1,-7,-5,-4,-2,0,1
1461662751647350,-3,-2,-2,2,0,0,-2,0
1461662751647350,1,5,16,3,0,0,0,-2
1461662751659359,0,3,5,-8,-3,-2,-1,0
1461662751659359,-2,-10,-33,-8,-2,-2,-2,-2
1461662751668773,-1,-2,3,1,-1,-1,-1,-1
1461662751668773,-2,-4,-14,-1,-3,0,0,0
1461662751682793,0,2,3,-4,-1,-2,-1,-1
1461662751682793,2,10,22,8,2,0,0,1
1461662751689850,-4,-8,-18,-3,-2,0,0,0
1461662751689850,0,2,0,7,1,0,1,1
1461662751697293,0,1,2,-4,-2,-1,-2,-2
1461662751697293,-1,2,8,1,-1,-2,-2,-1
1461662751706309,-2,1,-3,-10,-5,-2,-1,-1
1461662751706309,1,-2,-13,2,5,2,1,1
1461662751719806,0,-4,-5,6,3,2,0,-1
1461662751719806,-2,-3,-3,3,0,0,1,-2
1461662751728826,0,4,18,-1,-4,-1,-2,0
1461662751728826,-1,-14,-37,-14,-3,-3,-1,-2
1461662751742884,-1,-1,0,-3,-5,-2,-2,-1
1461662751742884,-1,-3,-5,4,0,0,0,-2
1461662751749842,-1,2,10,1,1,1,-1,-1
1461662751749842,1,0,6,-3,-1,0,0,-1
1461662751773846,-2,-6,3,5,0,-2,-3,-2
1461662751773846,-5,-7,-13,-10,-4,-2,-2,-3
1461662751780351,0,3,4,1,0,0,0,0
1461662751780351,0,-2,-1,-3,-3,-3,-2,-1
1461662751781361,2,-1,-6,-5,-3,-1,-1,-1
1461662751781361,-2,1,5,-2,-1,-1,0,2
1461662751788857,-2,-3,-9,1,-1,0,-1,-1
1461662751788857,2,-1,4,10,4,-1,-1,0
1461662751802895,-3,-6,-4,0,4,0,1,-2
1461662751802895,0,2,8,3,2,-1,0,-1
1461662751809897,-3,-4,-9,-17,-3,-4,-1,-2
1461662751809897,0,4,9,5,-5,-2,-2,-2
1461662751825907,-2,-5,-6,7,1,-1,0,-1
1461662751825907,-1,2,9,-4,-1,-1,0,0
1461662751827909,-2,-2,-7,4,1,0,0,-1
1461662751827909,0,1,-2,-17,-5,-2,1,0
1461662751839892,3,1,3,-4,1,2,-1,-1
1461662751839892,-2,-2,-15,-2,-1,-2,-1,0
1461662751848915,2,5,13,4,-1,-1,0,1
1461662751848915,-3,0,7,-2,-1,-2,-2,-2
1461662751862923,-1,-6,-21,-12,-4,-1,-1,-1
1461662751862923,1,1,0,2,0,1,0,-1
1461662751869913,-1,-3,7,2,0,0,0,-2
1461662751869913,-1,2,8,1,-1,-1,0,-1
1461662751885984,0,3,4,2,1,-3,0,-1
1461662751885984,-2,-6,-14,-5,-1,0,-1,-2
1461662751887428,1,1,-4,4,0,-1,0,0
1461662751887428,-1,-1,6,1,-2,0,-2,-1
1461662751899937,0,2,-5,-9,-5,-2,-2,-1
1461662751899937,-1,-2,-4,3,-1,-2,-2,0
1461662751908943,-1,-1,0,-4,0,-1,0,-1
1461662751908943,1,-1,6,12,4,0,1,0
1461662751922971,0,2,2,2,0,-1,1,1
1461662751922971,-4,-4,-7,-5,-3,-1,-1,-1
1461662751929475,-3,1,14,-2,-2,0,-1,-1
1461662751929475,-3,-7,-24,-7,-4,-2,-1,0
1461662751945987,-1,1,14,-5,-3,-1,-2,-2
1461662751945987,-3,0,5,0,-3,-2,-3,-1
1461662751947469,-2,-2,-5,4,1,-1,-1,-3
1461662751947469,1,3,-1,0,1,0,-1,0
1461662751959476,1,-1,-4,10,4,0,1,1
1461662751959476,0,1,5,-5,-3,-1,-1,-2
1461662751968496,-2,-3,-11,3,0,-1,-1,1
1461662751968496,0,-3,-9,-1,-2,-3,-2,0
1461662751983061,0,2,17,-3,-1,0,0,-1
1461662751983061,-4,-7,-22,-6,-3,-2,0,0
1461662751990032,-1,2,8,-4,-2,-1,0,-2
1461662751990032,-2,-6,-4,-1,-1,-1,-1,-1
1461662752013732,2,7,9,-1,3,1,-1,1
1461662752013732,0,-2,-12,2,3,0,-1,0
1461662752014731,-3,-1,-1,-4,-4,-2,0,0
1461662752014731,-4,-8,13,4,-1,-1,-2,-2
1461662752019707,-1,-3,-23,-5,-2,0,-2,-2
1461662752019707,-1,2,14,2,-1,-1,-1,0
1461662752028741,2,0,-13,-1,1,0,0,1
1461662752028741,1,6,4,-4,-3,-2,-2,-1
1461662752042738,-1,-1,9,-8,-6,-4,-2,-4
1461662752042738,-2,-7,-14,18,8,2,0,-1
1461662752049742,-1,-2,-2,0,-3,0,-1,0
1461662752049742,1,0,9,3,1,0,-1,1
1461662752065754,0,-2,3,-4,-2,0,1,0
1461662752065754,-2,1,1,-8,-2,-1,0,-2
1461662752067755,2,5,10,10,4,0,-1,1
1461662752067755,-3,-3,-11,-4,1,0,0,-2
1461662752079807,-3,-5,-17,-9,-3,-2,0,-2
1461662752079807,0,1,3,2,-1,-1,-1,0
1461662752088813,-3,-2,2,2,-1,-1,0,-1
1461662752088813,2,6,14,1,1,1,0,0
1461662752102824,2,1,2,1,2,2,0,0
1461662752102824,-3,-9,-15,-5,-4,0,-1,-2
1461662752109781,-1,0,-5,-3,-3,-1,-2,-2
1461662752109781,1,-2,-7,-4,-3,-3,-1,0
1461662752125780,-2,0,5,8,2,-2,-3,-1
1461662752125780,1,3,5,-7,-1,-1,-1,0
1461662752127794,0,-6,-12,-5,-2,0,-2,0
1461662752127794,0,-2,-6,-7,-1,-1,-1,-2
1461662752139804,-1,1,1,7,-4,-2,-1,-1
1461662752139804,0,5,17,-1,0,0,1,0
1461662752148813,-1,-1,-9,-9,-3,-2,-1,-2
1461662752148813,0,1,9,13,4,1,1,-1
1461662752162879,-4,-5,-12,-5,1,0,-2,-1
1461662752162879,-1,-1,7,6,0,-1,-1,0
1461662752169864,-2,-2,6,1,-1,-1,-1,-2
1461662752169864,-2,-5,-23,-7,-3,-1,-2,-1
1461662752185938,-1,-1,-6,-2,0,-1,-1,-2
1461662752185938,1,4,6,-5,-5,-2,-1,-2
1461662752187875,1,0,5,-1,0,-2,0,0
1461662752187875,0,1,-6,-5,-5,-3,-2,-1
1461662752199889,-3,-4,5,0,-2,-2,-3,-2
1461662752199889,-1,3,6,-5,-2,-1,-1,0
1461662752208894,-1,-1,-4,-3,-1,-2,-1,-3
1461662752208894,0,1,-2,4,-1,-1,-2,-1
1461662752230924,0,2,6,-5,-2,-1,-1,0
1461662752230924,-6,-6,0,3,1,-1,-3,-1
1461662752231924,-1,-1,7,1,-1,0,-2,1
1461662752231924,-1,-4,-11,-2,-2,-1,-1,-4
1461662752245979,0,4,8,3,0,-1,-1,0
1461662752245979,-1,-2,-4,-10,-2,-1,-1,1
1461662752246918,0,-3,0,8,1,-1,0,-2
1461662752246918,-1,3,11,1,1,-2,-2,0
1461662752258926,-1,0,-8,-1,-2,-2,-1,-1
1461662752258926,-1,1,3,-2,0,1,-1,-3
1461662752268948,-2,-5,-29,-4,-2,-1,-2,0
1461662752268948,-2,-1,17,-1,1,1,0,-1
1461662752283001,-1,-6,-21,-7,-5,-3,2,-1
1461662752283001,-1,1,1,-1,2,-1,-1,-1
1461662752289963,-3,-2,7,0,-1,0,-2,-2
1461662752289963,-2,0,-3,-1,0,-1,1,0
1461662752305970,0,-1,6,4,1,2,-3,-1
1461662752305970,-2,-3,-8,0,-1,-2,-1,-2
1461662752306971,0,1,-2,-3,-2,0,1,1
1461662752306971,1,5,7,1,-1,-1,-1,-1
1461662752318992,-1,-8,-15,-7,-2,-1,-1,0
1461662752318992,-2,-2,2,-2,-4,-2,-1,-2
1461662752327978,-1,2,16,8,-1,-2,-1,-2
1461662752327978,1,0,-8,-5,0,1,1,0
1461662752341986,-3,-5,-6,3,4,2,-1,-1
1461662752341986,-2,2,-4,-1,1,1,-1,0
1461662752350991,-2,-2,-4,-5,-2,-1,-2,1
1461662752350991,0,1,8,-3,-5,0,-1,-1
1461662752366001,0,1,3,2,-2,-1,-1,-1
1461662752366001,-2,0,7,1,-2,-1,1,0
1461662752367002,-3,-9,-52,-1,2,1,0,-1
1461662752367002,1,-1,7,2,1,0,-1,0
1461662752379010,2,1,-1,-4,-1,0,0,0
1461662752379010,-1,0,-1,-4,-4,-2,-1,-1
1461662752388016,0,7,23,-4,-3,-1,-1,-1
1461662752388016,-3,-9,-25,7,5,1,-1,-1
1461662752402026,-3,-4,-3,0,0,-2,-1,-2
1461662752402026,-1,-3,-4,0,-1,-1,-1,0
1461662752412033,0,2,3,-6,0,1,1,0
1461662752412033,-1,0,6,-8,-4,0,0,0
1461662752426055,0,2,2,11,0,-2,-1,-2
1461662752426055,-1,-3,-10,-3,-1,-2,-1,0
1461662752427056,-3,-4,-2,7,3,0,0,-2
1461662752427056,-2,0,14,-1,-2,-4,-1,-2
1461662752439111,-1,1,-5,-2,0,0,0,-1
1461662752439111,-2,-5,-12,-13,-7,-1,-3,-2
1461662752448088,1,3,16,2,-1,-1,0,0
1461662752448088,-1,0,-1,-5,-1,-3,-2,-2
1461662752462158,-2,-2,7,6,0,-2,0,-2
1461662752462158,-2,-1,1,-1,0,-1,-1,-1
1461662752471179,-1,-5,-15,0,0,-2,-2,0
1461662752471179,0,2,2,1,-3,0,0,-1
1461662752486192,1,-2,-3,0,0,1,-1,1
1461662752486192,0,5,5,0,-2,-1,-1,-1
1461662752487178,2,1,5,-4,-5,0,-2,-2
1461662752487178,-3,-2,9,-4,4,1,0,0
1461662752508210,-3,-3,-8,-6,-5,-2,0,-3
1461662752508210,-3,-3,-9,3,1,-1,-1,-3
1461662752510210,1,1,4,-6,-1,-1,-1,0
1461662752510210,0,-2,-8,-1,-3,-2,-1,-1
1461662752522201,-1,-3,6,-6,-3,-1,0,-1
1461662752522201,0,1,-1,5,1,0,0,0
1461662752531207,-1,-1,5,1,5,0,0,0
1461662752531207,-3,-4,-14,-4,-4,-2,-1,-3
1461662752545281,0,3,18,-2,2,-1,-1,0
1461662752545281,-2,-1,4,-3,-3,-2,1,-2
1461662752552280,-2,-3,-7,1,3,1,-1,0
1461662752552280,2,0,-4,0,0,-2,-1,0
1461662752568292,-3,-3,-3,-6,-6,-2,-2,0
1461662752568292,0,1,-3,3,2,0,-1,-2
1461662752570244,-3,2,-2,-14,-7,-5,-1,-1
1461662752570244,1,0,20,21,8,1,1,-1
1461662752582306,0,-1,-19,0,-1,-2,-1,-2
1461662752582306,-1,-5,-6,-2,0,0,0,0
1461662752591260,-3,-1,1,-4,-5,-2,-1,-2
1461662752591260,0,1,1,-1,-3,-1,-2,0
1461662752605290,0,3,-2,-3,-2,-1,-1,2
1461662752605290,-2,2,15,-3,-4,-1,-3,-3
1461662752612294,1,0,2,13,7,2,2,1
1461662752612294,-3,-5,-11,-7,-5,-1,-1,0
1461662752619276,2,1,13,0,1,0,-1,-1
1461662752619276,-2,-3,-13,-9,-1,-2,-1,1
1461662752628277,0,3,9,3,-1,-1,-3,-1
1461662752628277,1,-4,-13,-4,-3,0,-1,-1
1461662752642301,0,-1,-5,-6,0,0,-1,1
1461662752642301,0,5,31,1,-2,-1,-1,-1
1461662752651293,-2,-4,-16,-4,-1,-1,-1,-2
1461662752651293,-3,-4,-6,-5,-2,-2,-1,0
1461662752665302,-2,-4,-6,-10,0,0,-2,-3
1461662752665302,-2,-1,-15,6,-1,-2,1,1
1461662752672308,0,-2,10,1,0,0,0,0
1461662752672308,0,4,4,-1,-1,-1,-1,-1
1461662752679312,-3,-6,-9,-1,0,0,-1,-3
1461662752679312,-1,-4,7,-1,-1,-2,-2,-2
1461662752688318,-2,-9,-24,-9,-5,-1,-2,-1
1461662752688318,3,2,-1,-1,-3,0,-1,-1
1461662752702328,1,3,4,5,2,0,-1,1
1461662752702328,-3,1,0,-3,3,1,0,-2
1461662752711334,0,-2,2,8,0,-1,-2,-1
1461662752711334,1,4,10,0,1,0,-1,1
1461662752725357,0,3,-12,1,-3,-2,0,-1
1461662752725357,-3,-2,-10,-9,-4,-2,-2,-2
1461662752732350,-4,-10,-7,6,1,0,0,-1
1461662752732350,-1,5,11,-4,1,-2,-1,-1
1461662752739358,-5,-7,-5,2,-1,-1,0,-2
1461662752739358,0,6,17,5,2,2,0,0
1461662752755366,4,6,4,-20,-8,-2,-1,-1
1461662752755366,-4,-10,-14,21,1,-2,-3,-1
1461662752762371,0,4,4,1,2,-1,-1,0
1461662752762371,-1,-6,-17,-1,-1,-2,0,1
1461662752771377,-2,-4,1,-1,-1,-1,0,-1
1461662752771377,0,-3,-8,-3,1,0,1,-1
1461662752785390,0,1,8,-2,0,-1,-1,-2
1461662752785390,-2,-1,-4,-3,-2,-1,-2,-1
1461662752792399,-1,-3,-5,-4,-4,-3,-3,-1
1461662752792399,0,0,1,0,3,3,1,1
1461662752808434,-2,0,-1,-1,1,1,-1,-1
1461662752808434,-2,-6,-8,-6,-1,0,-1,-1
1461662752810406,-2,2,3,-5,0,-1,-1,-1
1461662752810406,-2,-1,0,6,-1,0,-1,-3
1461662752822433,0,3,11,-8,-7,-3,-2,-1
1461662752822433,-1,1,2,9,4,1,-2,-1
1461662752831440,-2,-3,-18,-7,-1,0,0,1
1461662752831440,-3,-4,9,-4,-1,-2,0,-1
1461662752845450,-4,-5,3,-3,-1,-1,-2,-1
1461662752845450,-2,-2,-5,-3,-3,0,-3,-1
1461662752852451,1,-2,2,7,0,-1,0,-1
1461662752852451,-2,-1,2,-4,-1,-2,-2,0
1461662752868506,-1,-4,-7,-7,-1,-2,-1,1
1461662752868506,-3,-1,-1,-4,-2,-2,-1,0
1461662752874464,0,0,2,1,-2,-1,-1,0
1461662752874464,1,1,-2,11,6,3,2,1
1461662752882484,1,5,0,-8,-3,-2,-1,0
1461662752882484,-6,-9,-7,17,3,-2,-2,-2
1461662752891470,3,8,12,2,2,-1,1,0
1461662752891470,-2,-6,-13,-33,-16,-5,-3,0
1461662752905498,-2,0,6,35,12,3,0,0
1461662752905498,3,8,-1,-12,-2,-1,2,1
1461662752911501,-6,-3,5,-11,-4,-4,-2,-2
1461662752911501,2,-2,-2,22,2,-2,-2,-2
1461662752928513,-1,2,-5,-13,-6,-3,0,-1
1461662752928513,-3,-7,-5,-6,-1,0,-1,-2
1461662752929490,-4,-6,-2,3,1,-1,0,-1
1461662752929490,4,8,-2,-13,-6,-1,-1,0
1461662752941511,-6,-6,-7,4,2,1,-1,-1
1461662752941511,2,5,3,-9,-11,-5,-1,0
1461662752950567,-4,-6,-3,-4,1,-1,-2,-3
1461662752950567,0,0,-2,2,5,0,-2,-2
1461662752965574,0,-2,0,2,-4,-1,1,-1
1461662752965574,-4,-4,-4,-1,-1,0,0,0
1461662752971530,3,7,6,10,1,2,0,-1
1461662752971530,-8,-10,-7,-16,-9,-1,-2,-4
1461662752988530,2,2,4,20,12,2,1,1
1461662752988530,0,-4,-4,-11,2,0,0,3
1461662752989531,1,5,1,-5,-10,-4,-3,-1
1461662752989531,3,-1,6,7,14,5,4,2
1461662753001599,-4,-3,-10,-18,-12,-4,-2,-3
1461662753001599,0,-9,-14,-13,1,0,-2,0
1461662753010563,-1,13,12,23,4,-1,-2,-2
1461662753010563,2,15,-3,-8,-4,-3,-2,-1
1461662753025569,-3,-8,4,-1,0,-2,0,-3
1461662753025569,2,1,2,-5,-6,-3,-2,-1
1461662753031620,-1,5,-1,13,11,1,-2,2
1461662753031620,2,7,1,-5,-5,-3,-2,0
1461662753048631,3,1,3,-6,-3,2,10,1
1461662753048631,-1,4,-1,11,7,2,0,-2
1461662753049589,-3,-6,-5,-21,-8,-3,-5,-1
1461662753049589,0,-5,-1,9,1,-5,-11,-4
1461662753061607,4,4,1,-8,-7,-1,-5,-3
1461662753061607,-4,-3,8,25,12,6,12,0
1461662753070590,-5,-7,-11,-17,-6,-3,-2,1
1461662753070590,2,2,5,6,-1,-6,-7,-1
1461662753085624,-2,-23,-15,-17,-7,-6,-6,0
1461662753085624,0,1,1,9,5,4,10,1
1461662753091674,-1,-1,6,-2,-5,0,-1,1
1461662753091674,-8,-23,-16,-16,-3,3,19,2
1461662753108640,6,11,-4,-22,-6,-5,-8,3
1461662753108640,-5,-11,10,23,4,-3,-17,-10
1461662753109621,2,7,1,-9,-7,-2,-5,-2
1461662753109621,5,12,3,12,11,5,0,-2
1461662753121643,-4,-5,-8,-6,-5,0,4,-2
1461662753121643,-7,-1,-4,-8,-5,-2,2,1
1461662753130650,1,-13,-4,8,0,-3,-1,-2
1461662753130650,1,3,-2,-16,-15,-3,2,-1
1461662753145642,-4,3,-3,6,9,2,1,-3
1461662753145642,-2,-2,-2,-6,0,-4,-5,1
1461662753151660,0,-3,3,-7,-5,-1,-1,3
1461662753151660,3,4,3,14,8,3,4,1
1461662753167697,0,1,-2,-11,-8,0,-3,-3
1461662753167697,-9,-8,-1,5,-2,-2,-7,-3
1461662753175675,1,11,4,6,7,5,11,6
1461662753175675,0,-11,-2,1,-1,-2,-10,3
1461662753181706,3,15,8,17,3,-7,-12,-4
1461662753181706,-3,0,-5,-19,-9,-6,-8,-2
1461662753190675,-2,0,3,4,0,-2,4,-4
1461662753190675,6,4,-3,-5,4,5,3,1
1461662753205696,-5,-8,5,19,3,0,1,-2
1461662753205696,2,10,-3,-10,-7,0,1,-3
1461662753211700,-14,-11,-6,-7,-5,-4,2,-4
1461662753211700,-1,4,2,-15,-14,-2,-2,-1
1461662753228700,5,-8,10,31,18,6,-1,0
1461662753228700,-5,7,-15,5,1,-1,3,-3
1461662753229701,2,2,7,25,10,3,-2,0
1461662753229701,0,-3,-11,-25,-6,0,10,1
1461662753241725,-4,-15,-11,-20,-12,-3,-10,-3
1461662753241725,2,6,6,20,6,-1,-7,0
1461662753250728,2,8,-5,-16,-2,-1,-2,-1
1461662753250728,-10,-21,6,10,-4,0,20,-2
1461662753264755,2,6,4,2,3,2,7,11
1461662753264755,9,0,0,-13,-8,-6,-21,1
1461662753271732,-15,-2,-5,-15,-5,-6,-16,-14
1461662753271732,0,-6,-5,-8,-10,-8,-16,-8
1461662753288772,-6,-1,2,21,12,0,5,-5
1461662753288772,-1,0,-4,-5,-1,0,13,5
1461662753289745,3,-7,-3,-8,-2,2,5,5
1461662753289745,0,0,-9,3,-2,-4,-7,-2
1461662753301811,-2,-1,2,-7,-1,3,8,1
1461662753301811,-5,0,4,5,-6,0,3,1
1461662753318776,4,-3,7,1,1,2,0,1
1461662753318776,0,-4,3,1,4,2,5,-3
1461662753324780,6,10,-7,1,12,3,-9,-1
1461662753324780,2,9,11,37,11,1,0,1
1461662753331785,1,-5,-3,-8,-3,-1,0,1
1461662753331785,-2,-20,-17,9,-1,-1,-7,-2
1461662753348785,1,24,8,-13,-8,-2,4,-3
1461662753348785,-5,-21,-17,-46,-12,0,4,-1
1461662753349785,-6,1,12,47,10,2,5,3
1461662753349785,4,13,9,-1,-1,-1,1,0
1461662753361806,-4,-10,-16,-12,-9,-7,-21,-9
1461662753361806,3,12,7,0,-2,-2,9,5
1461662753370801,2,-6,-8,-20,-12,-5,10,9
1461662753370801,-3,-3,7,-8,0,2,-11,-5
1461662753384850,-6,-1,3,6,7,5,2,-9
1461662753384850,6,-1,-2,0,-3,-5,-18,-3
1461662753391855,-11,2,-14,-22,-14,-10,-17,-7
1461662753391855,3,8,1,7,3,-3,2,1
1461662753407839,-6,-17,3,5,0,0,4,1
1461662753407839,-7,-27,-17,-24,-7,-1,3,-1
1461662753409830,6,5,10,1,3,4,19,0
1461662753409830,0,-16,4,7,5,4,4,3
1461662753421859,-5,-3,13,35,7,2,3,-1
1461662753421859,-3,19,17,1,4,1,4,0
1461662753430865,0,-17,-19,-9,-5,1,0,-3
1461662753430865,17,24,-6,0,-1,-1,-3,3
1461662753444920,6,-8,4,-12,-6,1,15,10
1461662753444920,-22,-22,-1,2,-6,-2,3,-2
1461662753451917,0,11,0,-15,1,-2,-13,-19
1461662753451917,-5,-18,9,8,-4,-16,-47,-16
1461662753467928,11,7,-13,-39,-13,-7,-2,6
1461662753467928,2,-7,9,30,15,10,5,-1
1461662753469872,3,-3,-1,-26,-6,4,36,16
1461662753469872,3,-3,-4,17,5,2,1,5
1461662753481942,-6,7,-5,-9,-10,-12,-32,-10
1461662753481942,-10,0,9,25,10,-5,-20,-8
1461662753490891,-1,-6,-8,-20,-18,-3,15,2
1461662753490891,-2,-20,-28,-16,7,7,-2,3
1461662753504926,4,12,20,18,1,-2,0,-7
1461662753504926,2,22,-5,-28,-5,0,12,-8
1461662753511931,13,-4,0,40,12,8,-15,0
1461662753511931,3,36,8,-51,-17,7,35,21
1461662753527920,-16,-14,3,73,37,11,-4,-11
1461662753527920,1,-17,10,-4,-13,-5,24,6
1461662753534946,4,10,-12,25,20,9,-15,13
1461662753534946,-8,0,-7,-32,-20,-9,-18,-20
1461662753541937,17,21,-2,-30,-25,-16,-25,3
1461662753541937,15,-19,-3,19,16,3,14,7
1461662753550929,-18,-22,-5,-27,-14,-15,3,-14
1461662753550929,-18,-20,7,38,12,2,10,-10
1461662753565940,-5,-7,-3,-22,-8,5,-13,3
1461662753565940,-9,6,0,0,-8,-8,-48,-4
1461662753571956,12,11,6,-21,-10,-3,15,0
1461662753571956,5,3,4,9,13,6,10,17
1461662753587994,-18,-28,4,49,11,3,40,-12
1461662753587994,48,42,26,8,14,23,48,14
1461662753593998,3,-10,-7,9,15,7,-32,7
1461662753593998,-7,7,-20,-6,-12,-26,-43,-27
1461662753602004,-33,-36,19,-25,-29,8,101,3
1461662753602004,30,20,-26,-20,20,26,-37,12
1461662753618034,-18,-33,-2,38,12,-20,-23,-3
1461662753618034,-6,-15,-19,25,3,-10,-24,-5
1461662753624992,13,8,-8,-62,-20,9,61,35
1461662753624992,-32,-5,13,-10,-10,-6,-74,-22
1461662753632044,-18,-10,11,14,-2,-27,-82,-42
1461662753632044,-8,30,-6,-42,-24,-32,-57,-35
1461662753648061,23,-14,-6,-22,-15,1,-15,10
1461662753648061,10,11,14,50,30,7,35,15
1461662753654105,-2,22,-25,3,5,13,33,27
1461662753654105,-18,30,23,-2,4,8,43,8
1461662753662122,-10,29,-23,-19,-19,8,15,-17
1461662753662122,20,13,29,-21,-4,19,41,1
1461662753671108,16,20,-26,-22,-17,-14,-32,-4
1461662753671108,-13,-11,11,87,50,18,26,6
1461662753685138,33,-23,-7,-21,12,23,22,31
1461662753685138,-24,-17,-1,-14,-21,-11,-10,-8
1461662753692179,-7,122,24,23,-2,-25,-62,-25
1461662753692179,1,3,-4,-52,-36,-6,41,19
1461662753708145,18,-10,-7,31,23,2,-54,51
1461662753708145,-20,-66,-11,21,-6,-41,-72,-47
1461662753714149,-48,-92,-39,-71,-36,-25,-68,-49
1461662753714149,10,-63,3,-9,-9,7,8,6
1461662753731232,-23,-25,-3,10,15,-5,-28,-39
1461662753731232,1,-70,-8,-1,-20,-10,21,15
1461662753732211,30,10,-17,-43,-3,17,36,19
1461662753732211,-7,-10,7,-24,-26,2,60,21
1461662753745240,-13,35,46,62,37,14,7,-8
1461662753745240,4,53,-63,-19,-4,0,37,10
1461662753752231,30,2,-1,-16,-10,11,11,8
1461662753752231,0,12,29,39,23,2,-51,-25
1461662753769231,-24,-22,-23,-97,-55,-25,-58,-13
1461662753769231,10,-14,3,53,34,-5,-9,14
1461662753774247,13,-16,19,49,10,5,63,24
1461662753774247,-10,-22,-22,-41,-17,26,74,15
1461662753791245,-10,19,-12,1,-4,-24,-73,-32
1461662753791245,4,37,13,-42,-24,-23,-1,-23
1461662753792247,3,-2,18,-57,-26,6,-5,30
1461662753792247,26,-9,16,46,20,-11,-63,-23
1461662753805268,-25,-2,-6,-8,3,-6,-34,-16
1461662753805268,-47,11,-14,-43,-17,-19,-8,-11
1461662753812274,40,-5,31,108,40,12,36,6
1461662753812274,-8,-12,-11,-65,-32,-11,-9,-13
1461662753827271,-7,7,9,37,27,18,31,8
1461662753827271,12,5,25,-6,9,21,42,18
1461662753834289,3,-5,-53,6,-6,6,11,-9
1461662753834289,10,-3,-11,-53,-17,8,-16,11
1461662753851322,2,-9,-12,-32,-19,-14,-4,-6
1461662753851322,18,3,8,53,38,1,23,25
1461662753852301,-26,-9,22,-8,20,51,112,31
1461662753852301,15,-16,0,31,20,-18,-120,-29
1461662753864354,-14,4,-31,-34,-37,-55,-44,-13
1461662753864354,-8,7,-11,-2,-7,6,4,24
1461662753873303,-1,1,12,-4,2,3,43,-20
1461662753873303,1,-3,-15,-11,2,-3,-13,2
1461662753888314,18,0,23,-22,-34,-25,-21,7
1461662753888314,8,4,12,36,30,9,-8,-1
1461662753894346,0,4,-15,-20,3,7,2,0
1461662753894346,7,-11,12,-27,-15,15,58,10
1461662753912330,-41,-1,7,-1,19,16,8,-14
1461662753912330,-20,-1,-25,-2,-5,-2,-22,-17
1461662753914352,18,9,9,-81,-54,-8,4,10
1461662753914352,-7,-11,51,127,83,16,-1,-4
1461662753924338,19,-4,-29,-15,12,4,29,7
1461662753924338,11,1,-18,-50,-21,19,95,19
1461662753933343,-9,3,8,-5,12,0,-80,-40
1461662753933343,10,-1,-17,-46,-44,-32,-62,27
1461662753955359,-2,-4,11,52,20,-7,-27,3
1461662753955359,-8,-2,7,-6,-16,-17,-44,-18
1461662753957361,0,4,11,8,0,-4,56,3
1461662753957361,-6,-5,-20,3,6,11,3,-7
1461662753970371,4,-3,10,25,6,-4,-17,-5
1461662753970371,-17,-2,-2,-13,-18,-5,-35,-3
1461662753986381,-17,2,-2,-4,4,-9,-7,-5
1461662753986381,14,-3,6,-35,-13,12,48,4
1461662753987382,-9,1,2,82,37,22,38,9
1461662753987382,12,3,-15,-31,-6,-7,-24,-20
1461662754001458,-15,3,14,9,-3,-8,-30,-6
1461662754001458,-37,0,-2,-32,1,4,22,1
1461662754008411,34,2,8,23,12,9,-6,2
1461662754008411,10,-4,12,9,1,0,1,8
1461662754016420,-8,1,-22,17,10,5,4,3
1461662754016420,-13,-4,-13,-8,-19,6,91,17
1461662754030427,2,3,-23,-28,-17,-8,-55,-33
1461662754030427,6,-4,4,1,-8,-41,-98,-17
1461662754032414,6,-2,6,-1,7,-11,11,27
1461662754032414,11,0,-12,0,-8,-6,-10,-15
1461662754044482,1,-2,-4,-11,0,9,36,-2
1461662754044482,-17,-1,3,3,2,34,38,-1
1461662754053434,-30,0,-8,-24,-15,-17,-47,-15
1461662754053434,-7,1,-9,-1,0,-11,-12,-9
1461662754067499,23,-1,7,30,34,22,41,19
1461662754067499,10,-2,9,11,-5,-7,-18,-4
1461662754074459,4,0,3,25,4,-4,-6,1
1461662754074459,-5,-4,-13,-19,-5,2,-1,-2
1461662754090514,0,3,-8,-44,-5,-3,-9,-5
1461662754090514,1,3,1,2,-6,-3,16,8
1461662754092459,6,1,-2,21,11,9,-8,-1
1461662754092459,-1,-2,-4,16,6,2,36,14
1461662754104480,-7,2,-13,-54,-34,-10,15,-1
1461662754104480,-24,-3,1,3,4,4,-30,-6
1461662754113501,21,-1,-10,5,-9,-31,-50,-12
1461662754113501,-3,-1,1,-1,-1,-7,-12,-14
1461662754127489,16,0,-2,1,-5,-3,7,-1
1461662754127489,-25,-1,-5,-14,-4,3,40,21
1461662754134515,16,5,0,-16,-2,8,-22,-6
1461662754134515,-10,1,-7,-3,-6,-11,-31,-23
1461662754150513,-13,-2,15,8,-3,8,12,7
1461662754150513,21,-2,-14,30,21,5,10,-5
1461662754152499,-6,-2,13,21,11,1,8,7
1461662754152499,-1,-1,3,9,5,-2,-7,6
1461662754164568,-10,-1,-11,-1,3,3,7,-1
1461662754164568,15,-2,-1,-23,-16,-7,-8,-2
1461662754173610,-25,3,3,-2,0,2,12,3
1461662754173610,-1,-1,1,4,1,0,-9,-5
1461662754187634,7,-9,-15,-11,-13,-9,-9,-1
1461662754187634,-14,-1,-6,-17,-5,0,4,3
1461662754201688,-14,-1,-5,-5,0,-2,-3,2
1461662754201688,33,1,12,11,2,-17,-10,11
1461662754210646,-20,6,6,-1,-4,-1,16,4
1461662754210646,-11,-6,-7,-14,-6,15,-4,-13
1461662754212637,14,-4,2,-6,0,30,-11,-11
1461662754212637,-19,4,-6,-29,-15,-3,-21,-1
1461662754233718,8,-32,17,76,34,-9,0,1
1461662754233718,5,70,0,-4,-8,-2,6,0
1461662754234651,7,65,-11,-26,-11,-3,10,-2
1461662754234651,8,26,7,26,21,6,1,0
1461662754247720,-12,-37,-10,-35,-12,-4,-6,-1
1461662754247720,-6,-98,3,-2,-5,-8,-7,-6
1461662754255679,9,-112,4,0,0,-6,-3,-3
1461662754255679,-1,-107,-11,1,-2,0,4,3
1461662754270683,-11,-100,0,-3,-5,-3,-5,-2
1461662754270683,6,-109,0,-7,-3,-10,-8,-4
1461662754272680,-2,-93,-3,0,-2,-7,1,-2
1461662754272680,9,-4,1,10,4,4,6,9
1461662754284711,-3,11,-1,-7,-8,-14,-18,-1
1461662754284711,-25,20,-10,-16,-11,-5,9,-2
1461662754293694,1,56,6,13,4,12,2,1
1461662754293694,-10,91,1,10,5,5,-1,-7
1461662754307719,15,127,-6,-22,-16,2,-7,-4
1461662754307719,12,94,-4,-5,-3,-7,4,-1
1461662754314724,-22,47,-7,-7,0,-9,2,-1
1461662754314724,-2,-3,14,63,31,8,-6,-5
1461662754330736,3,27,0,-9,-1,4,-2,2
1461662754330736,14,27,-4,-3,-3,-5,-2,1
1461662754332737,1,-14,2,7,3,4,1,1
1461662754332737,-4,25,-10,-15,-13,-3,-4,-3
1461662754344745,3,-6,2,-2,-1,-7,-2,-1
1461662754344745,2,0,3,3,1,-1,-11,-3
1461662754353737,3,2,1,4,3,5,2,-1
1461662754353737,-4,-5,5,-13,-5,16,16,6
1461662754367758,-8,-21,4,2,-2,-2,-4,3
1461662754367758,0,-29,-14,-10,-2,-1,-2,2
1461662754374752,2,-32,3,5,-2,-24,-6,1
1461662754374752,-2,-4,-4,-5,-5,-2,-6,-1
1461662754390779,-11,19,6,-2,0,11,7,2
1461662754390779,-2,9,7,5,2,-1,-2,-1
1461662754392781,1,9,-12,-2,0,3,-2,-1
1461662754392781,1,25,-1,-2,-4,-8,-4,-5
1461662754404773,-3,-11,-9,-5,-3,-2,0,0
1461662754404773,-4,-15,0,-5,-5,-1,0,-3
1461662754413792,4,6,25,11,6,-2,3,-1
1461662754413792,6,30,-13,-1,1,-2,-1,0
1461662754435832,-7,2,-8,-9,1,2,2,-1
1461662754435832,-1,16,9,0,2,1,3,-4
1461662754437795,-4,-10,-5,10,4,3,4,0
1461662754437795,7,16,14,-5,-4,-7,-2,1
1461662754449843,2,8,-1,-5,-4,-4,-1,0
1461662754449843,-6,-12,-2,-5,-3,2,3,-2
1461662754456808,-1,1,-6,-9,-5,-2,-2,-2
1461662754456808,-2,-7,-8,-3,-3,-5,-4,-2
1461662754464873,-6,-13,-7,-5,-3,-1,1,0
1461662754464873,3,2,4,-4,1,4,1,-1
1461662754473823,4,-6,-5,0,-2,-6,-3,-2
1461662754473823,-1,-13,3,0,-1,-1,-1,1
1461662754487835,-7,-1,-12,0,-1,1,0,-1
1461662754487835,0,-8,0,2,1,1,0,-2
1461662754494866,3,-5,-4,4,2,0,0,0
1461662754494866,-4,1,-4,-9,-4,-2,-3,-2
1461662754509863,-1,0,8,3,0,-3,-1,0
1461662754509863,-5,-10,-5,6,3,1,-1,-3
1461662754516867,-1,-1,-3,-12,-5,-1,0,-2
1461662754516867,-4,-1,-4,-7,-6,-3,0,-4
1461662754524856,-2,-2,3,-9,-7,-3,-2,0
1461662754524856,2,-3,-6,23,8,2,1,0
1461662754539933,-1,0,-4,-12,-6,-1,-2,-2
1461662754539933,-1,3,14,7,0,-6,-4,-2
1461662754547932,-2,-6,-18,2,1,3,0,0
1461662754547932,-1,-9,4,-10,-7,-2,-3,-3
1461662754554897,-1,0,2,3,2,1,2,0
1461662754554897,-2,-5,-15,-5,-5,-2,0,0
1461662754569952,3,1,13,0,-3,-1,-1,0
1461662754569952,1,-1,1,-3,3,0,-1,-2
1461662754576927,-2,-5,-8,2,0,0,-3,-2
1461662754576927,-1,-1,3,-3,0,-1,-1,0
1461662754584946,-1,-1,0,4,1,-1,1,-1
1461662754584946,0,-2,-5,-4,-1,-1,-1,-2
1461662754593940,-2,2,-2,1,0,-2,-1,0
1461662754593940,1,7,-2,-4,1,1,0,1
1461662754608018,-3,-4,9,8,3,1,0,-2
1461662754608018,-1,3,0,-1,-3,0,0,0
1461662754622015,-1,-8,-4,1,-2,-2,0,-1
1461662754622015,0,13,7,3,0,0,-1,-2
1461662754630021,-1,1,-14,-5,-1,0,-1,0
1461662754630021,-1,-1,6,-12,-4,-4,-2,-2
1461662754637040,-2,-4,0,6,2,1,0,-1
1461662754637040,1,-4,1,0,2,3,0,0
1461662754653100,-3,-5,2,-18,-6,-2,0,-2
1461662754653100,3,-1,-17,8,-2,0,-1,0
1461662754655040,-2,-1,11,7,4,-1,1,0
1461662754655040,-4,-7,12,1,1,-1,-4,-1
1461662754668077,-1,-3,-5,4,1,1,0,0
1461662754668077,-1,-2,-4,-5,-3,1,0,-1
1461662754675054,-2,1,-1,-10,-8,-2,-2,-1
1461662754675054,-1,-5,0,11,1,0,-1,-1
1461662754690080,1,3,5,8,3,0,1,1
1461662754690080,-2,-7,0,-3,-2,-2,0,-1
1461662754698120,-2,-3,-16,-3,-1,0,-2,-2
1461662754698120,-4,-3,3,-12,-7,-3,-1,-1
1461662754713095,-2,-5,2,1,0,-2,0,-1
1461662754713095,1,0,3,2,4,2,-1,-2
1461662754715097,4,10,17,0,-1,0,1,0
1461662754715097,-7,-21,-39,-8,-2,-1,-1,-2
1461662754728092,-1,0,4,-4,-4,-2,-1,0
1461662754728092,-3,-8,-7,0,-3,-4,-2,-3
1461662754734110,1,3,0,-10,1,0,-1,0
1461662754734110,0,2,3,-7,-3,0,0,-1
1461662754750164,-3,-4,3,11,3,-1,0,-1
1461662754750164,1,5,9,0,-3,-1,0,1
1461662754757122,1,-1,-9,-5,-4,-2,0,-1
1461662754757122,-2,-2,0,5,1,-2,0,-1
1461662754773130,-3,-2,1,-1,-1,0,-3,0
1461662754773130,0,-4,-6,2,1,-1,-1,-1
1461662754775125,-1,-1,1,-6,-2,0,-1,-2
1461662754775125,-1,0,-4,4,3,0,-1,0
1461662754788164,-1,2,2,1,0,0,0,0
1461662754788164,1,11,1,-3,2,-1,0,-1
1461662754794166,-2,-6,-10,3,-1,-2,0,-2
1461662754794166,-3,-4,-8,-3,-3,-1,0,0
1461662754810164,0,0,2,2,0,-1,-2,-2
1461662754810164,0,1,6,-5,-5,-3,0,-1
1461662754817185,1,0,1,-7,0,-2,-1,-1
1461662754817185,1,5,6,6,1,-1,-2,-1
1461662754833176,-3,-9,-15,-10,-3,-3,-2,0
1461662754833176,-2,-6,-4,9,2,1,-1,0
1461662754835225,-1,-2,5,0,-1,-1,-4,-2
1461662754835225,-2,-1,4,4,0,-1,-1,0
1461662754848195,-1,2,4,-6,-5,-3,-1,-2
1461662754848195,-2,-4,-2,-8,-4,-1,-1,-2
1461662754854283,0,-3,-3,3,-2,-1,-1,0
1461662754854283,0,-1,-3,4,4,0,-2,-2
1461662754870281,0,-1,-8,-13,-7,-2,0,-1
1461662754870281,-2,0,3,4,2,-1,-1,-2
1461662754877345,1,1,-2,8,3,1,1,0
1461662754877345,-1,0,4,-8,-7,-2,-3,0
1461662754893355,-2,3,-7,0,0,0,-1,1
1461662754893355,0,-6,-9,2,5,1,-1,-1
1461662754899321,0,0,4,3,0,-1,-1,-1
1461662754899321,0,1,-6,-13,-2,-1,-1,-1
1461662754907319,-1,-1,6,19,2,-1,-1,-2
1461662754907319,0,-1,-3,-15,-8,-3,-2,0
1461662754914372,-1,1,-5,2,2,-1,-1,0
1461662754914372,-1,-4,0,0,-2,0,0,-2
1461662754930323,0,-1,-10,-7,1,0,0,0
1461662754930323,0,-2,8,6,-1,0,-1,-2
1461662754937330,-1,-1,-8,-5,-2,0,-1,-1
1461662754937330,-3,-2,6,9,1,-2,-2,0
1461662754953339,-1,-3,-3,-9,-3,-2,-1,-2
1461662754953339,1,-2,-3,3,-1,-1,-2,1
1461662754955341,3,3,0,-13,-11,-5,-2,-1
1461662754955341,-1,0,-3,12,12,4,2,-1
1461662754967351,-2,-2,1,1,-1,-1,-2,-1
1461662754967351,-1,1,-6,-20,-3,-1,-3,-1
1461662754982362,-2,-3,3,21,1,0,-1,-2
1461662754982362,-2,1,3,-10,-6,-3,-2,-1
1461662754990424,-2,2,10,2,2,0,-1,-1
1461662754990424,0,-3,-12,2,0,0,-1,-1
1461662754997436,-3,-6,-3,-5,-1,-1,-1,-1
1461662754997436,-2,1,-2,-9,-1,-1,1,-2
1461662755013466,-3,-2,3,7,0,-1,-2,-1
1461662755013466,0,0,-7,-11,-8,-3,-2,-2
1461662755015440,0,2,11,5,4,2,-1,0
1461662755015440,-2,-4,-12,-1,0,-1,1,0
1461662755027477,0,3,2,4,2,1,-1,0
1461662755027477,1,0,-4,-1,-6,-3,0,0
1461662755036455,-3,-6,-5,-14,-7,-4,-2,-3
1461662755036455,-3,-2,7,5,3,1,-1,1
1461662755050523,-3,-3,0,1,0,-1,0,-1
1461662755050523,-2,-6,-6,1,0,-1,0,-1
1461662755057468,0,0,-1,-5,-2,-2,0,-2
1461662755057468,-1,3,5,7,0,1,0,0
1461662755073496,-4,-7,-9,-5,-4,-2,-2,-2
1461662755073496,-1,3,17,5,0,-1,-2,-2
1461662755074496,1,-1,-10,-11,-2,0,-1,-1
1461662755074496,-1,-4,-8,-8,-4,-4,-1,-2
1461662755095499,-1,4,-3,12,2,1,1,-2
1461662755095499,1,-4,-1,1,4,1,1,0
1461662755097498,0,5,11,-6,-4,-2,-1,0
1461662755097498,-1,-2,-4,11,4,1,1,-1
1461662755110522,1,-1,3,-3,-1,-1,-2,0
1461662755110522,2,2,-4,-9,-6,-2,-1,-2
1461662755117512,-2,-2,-1,7,3,1,0,1
1461662755117512,-3,1,3,-16,-7,-3,-2,-3
1461662755133554,-1,-2,-3,-1,-4,-3,-2,-4
1461662755133554,-1,3,7,1,5,1,1,0
1461662755135526,-1,-6,-14,3,1,-2,-1,-1
1461662755135526,-1,4,2,2,-2,1,-1,-1
1461662755147533,-2,-1,-4,-14,-7,-4,-1,0
1461662755147533,-1,-1,-3,-7,-2,-3,-1,-3
1461662755155550,-1,1,13,25,8,3,0,-1
1461662755155550,-1,-6,-12,-10,-4,-3,0,0
1461662755178574,-1,4,7,6,3,1,-1,2
1461662755178574,-1,-4,0,0,-2,-2,-1,1
1461662755179569,-2,-2,-5,-14,-7,-3,-1,-1
1461662755179569,-1,-1,-2,13,5,0,-2,-1
1461662755193623,-1,-2,0,-4,-2,-1,-1,-2
1461662755193623,0,3,13,14,4,0,0,0
1461662755195568,0,-3,-10,-9,-4,-1,-1,-2
1461662755195568,0,2,3,-2,-3,-2,-1,-1
1461662755206586,-1,-3,1,-1,-1,1,1,-1
1461662755206586,-1,-2,-11,-5,-4,0,-2,2
1461662755216583,1,1,6,5,1,0,-1,-2
1461662755216583,-4,-3,-5,-8,-3,-2,-2,-3
1461662755230622,1,0,-1,-3,-1,-1,0,0
1461662755230622,-1,-1,1,-4,-2,-2,2,-1
1461662755236654,0,0,-4,2,-1,-2,-2,0
1461662755236654,-1,1,1,-4,0,0,0,0
1461662755252620,0,-1,-13,-8,-1,-1,-1,-1
1461662755252620,0,-1,7,9,-1,0,-1,-2
1461662755259624,-2,-7,-19,-16,-6,-3,-2,-2
1461662755259624,-3,-3,1,-10,-6,-4,-1,-1
1461662755266675,-2,0,9,24,7,1,0,-1
1461662755266675,1,2,-2,10,5,2,0,0
1461662755275635,-1,1,1,-1,-1,-1,0,0
1461662755275635,-4,1,-3,-3,-4,0,-1,-2
1461662755290689,-3,-7,-8,-7,-7,-2,-2,-1
1461662755290689,1,-1,-7,-8,4,1,-2,0
1461662755304669,0,3,15,16,3,2,0,-1
1461662755304669,-3,-4,-10,-10,-5,-3,0,-1
1461662755313675,-1,1,-5,-5,-2,-3,0,-1
1461662755313675,-1,-1,1,-4,-4,-1,-2,-1
1461662755314651,-2,-3,-1,-2,3,0,-2,-1
1461662755314651,0,1,0,11,2,1,0,2
1461662755326684,-1,-1,3,-6,-1,-1,0,-1
1461662755326684,0,-1,-5,-4,-3,-2,0,0
1461662755335673,-2,-2,2,-1,-2,-2,0,-1
1461662755335673,-2,1,6,-1,3,0,-1,-1
1461662755350676,-1,-2,-5,3,-6,-2,-2,-1
1461662755350676,-2,-3,3,-3,0,0,0,-2
1461662755356695,2,0,2,10,4,1,0,1
1461662755356695,-3,-1,5,4,0,-2,0,-2
1461662755373704,-3,-5,-7,-11,-3,-1,-1,-1
1461662755373704,2,4,-5,-6,-3,-1,-1,-1
1461662755374692,0,3,-4,-6,-2,-1,-2,-1
1461662755374692,0,3,20,-2,-4,-3,-1,-1
1461662755386714,1,0,-3,-4,0,0,-1,0
1461662755386714,-2,-11,-12,2,1,-1,-1,0
1461662755395708,0,2,4,0,1,-1,-1,-1
1461662755395708,0,-2,-10,-4,-5,-2,0,0
1461662755409729,0,1,5,-4,-2,0,-1,0
1461662755409729,1,2,7,-5,-2,1,0,-1
1461662755416762,-1,-4,-9,8,1,0,1,-2
1461662755416762,-1,0,2,4,4,2,0,-1
1461662755432774,-1,-2,1,0,0,0,-1,-1
1461662755432774,-1,0,-1,-8,-7,-3,-2,-2
1461662755439778,-3,-3,-3,-14,-4,-2,-2,-2
1461662755439778,-1,-1,2,12,2,1,0,-1
1461662755446783,1,1,-3,-2,4,1,0,0
1461662755446783,0,0,4,8,-1,-2,-2,-2
1461662755455751,-2,-2,2,-4,-2,-2,-1,-1
1461662755455751,-4,-5,-4,-8,-7,-4,-3,-2
1461662755469826,0,-2,-15,1,5,1,0,1
1461662755469826,0,1,4,-1,-2,-1,-1,-1
1461662755476766,-1,-1,-3,-3,-1,-1,-1,-2
1461662755476766,-1,-3,-4,-4,-2,0,-1,-1
1461662755492777,-1,3,15,-4,-4,-2,-1,0
1461662755492777,-1,-8,-22,0,-1,-1,0,-1
1461662755499786,0,1,-1,-2,-3,-3,-1,-1
1461662755499786,-2,-1,-5,-6,1,0,0,0
1461662755506808,1,2,9,5,4,-1,1,-1
1461662755506808,-1,-1,-6,4,1,0,0,0
1461662755515815,-2,-3,-3,-8,-3,-2,-2,-2
1461662755515815,-2,-2,-3,1,-1,0,-2,-1
1461662755529819,-1,0,6,6,-2,-1,-2,-1
1461662755529819,0,1,0,-7,-4,-2,-2,-1
1461662755536807,-3,-4,-4,-19,-7,-2,-1,0
1461662755536807,-2,1,6,22,3,0,-1,-1
1461662755552879,-2,-6,-12,-4,0,-1,0,0
1461662755552879,-2,-6,-8,-3,-3,-2,-1,-2
1461662755559840,1,1,0,3,0,-1,-1,0
1461662755559840,0,-2,-6,-3,-3,-2,-1,0
1461662755575853,-1,3,5,4,-2,-1,-3,-1
1461662755575853,2,2,6,-4,0,-2,0,-1
1461662755577854,-3,-1,1,-4,-3,0,-3,-1
1461662755577854,-7,-8,-8,-2,4,0,-1,-1
1461662755589861,0,-3,-9,4,0,-1,0,-1
1461662755589861,-2,-1,7,1,-1,-1,-2,-1
1461662755596851,3,9,14,9,1,1,2,0
1461662755596851,-2,-10,-24,-11,-5,-3,-2,-1
1461662755612863,-1,1,11,-3,-5,-2,-2,-2
1461662755612863,0,-2,-3,8,3,0,-1,0
1461662755619926,0,0,-1,-6,-1,-1,0,-1
1461662755619926,-1,0,3,0,-1,0,-3,0
1461662755635882,0,2,-1,-1,1,-2,-1,0
1461662755635882,1,1,0,-5,-1,0,0,0
1461662755637885,0,-3,-1,8,1,-1,-2,-2
1461662755637885,-1,5,3,-6,0,-1,-2,-1
1461662755650946,0,-2,-6,-8,-3,-1,0,-1
1461662755650946,-4,-4,3,0,-4,-4,-3,-1
1461662755656908,-2,-3,-10,-12,-5,-2,-1,0
1461662755656908,-1,0,15,-6,0,1,-1,0
1461662755672912,0,-1,-6,3,-3,-1,-3,0
1461662755672912,-2,-7,-15,-13,-2,-1,0,-2
1461662755679911,3,1,4,8,5,1,0,-1
1461662755679911,0,3,-1,-1,-1,-2,0,0
1461662755695981,0,-2,3,-10,-6,-4,0,0
1461662755695981,0,6,9,7,5,2,1,-1
1461662755697922,-2,-4,-1,15,4,2,-2,-1
1461662755697922,-1,1,-1,2,1,-1,-1,-1
1461662755709948,-1,-3,-3,-4,0,-1,-1,0
1461662755709948,0,4,-1,-8,-3,-3,-2,-2
1461662755716953,-2,-2,3,4,0,-1,0,-2
1461662755716953,-1,0,-1,4,-1,-1,0,0
1461662755732947,-2,-1,1,10,10,3,0,1
1461662755732947,0,2,13,3,0,-1,-2,-1
1461662755739951,0,-2,-4,-3,0,-2,-1,1
1461662755739951,-1,-1,-8,-12,-8,-3,-2,0
1461662755755981,-3,-4,1,3,-2,-3,-1,-1
1461662755755981,2,2,-4,-3,4,0,2,0
1461662755757964,0,2,2,2,1,-1,0,-1
1461662755757964,-5,-7,-5,-8,-4,-2,-1,-3
1461662755770007,0,-2,-4,3,1,1,0,0
1461662755770007,0,3,6,-11,-4,-1,-2,1
1461662755776995,-1,-3,0,21,6,0,0,0
1461662755776995,-1,-4,1,5,0,-1,0,0
1461662755793047,0,5,1,2,0,-1,0,-2
1461662755793047,2,-3,-7,0,-3,-3,-2,0
1461662755799994,4,1,-5,-19,-7,-1,-2,-1
1461662755799994,-7,2,7,0,-4,-1,-3,-5
1461662755816064,-2,-3,-4,-1,-1,0,0,-1
1461662755816064,-3,-4,-1,2,1,0,-1,-1
1461662755818008,1,5,2,-3,0,-1,0,-1
1461662755818008,1,1,-5,1,2,0,0,-1
1461662755830044,-1,2,5,-7,-10,-4,-3,-3
1461662755830044,-3,-4,-10,-2,7,1,-1,-2
1461662755837021,-2,0,5,9,-1,-1,0,-2
1461662755837021,-3,-4,-14,-27,-6,-2,0,-2
1461662755853031,1,0,16,35,11,1,-2,-1
1461662755853031,-2,-5,1,-1,-5,-3,-4,-3
1461662755859051,-3,-2,-4,-7,-1,0,0,-1
1461662755859051,4,8,5,6,2,0,0,2
1461662755876087,0,-4,-12,-11,0,2,0,-2
1461662755876087,2,3,0,-2,-5,-1,-1,0
1461662755877063,-3,-1,1,0,-3,-2,-2,-3
1461662755877063,-1,-5,-1,7,3,1,-1,-1
1461662755890096,1,2,2,-12,-7,-2,-3,-2
1461662755890096,2,1,2,26,12,2,1,-1
1461662755897063,-2,-1,-9,-13,-2,0,3,3
1461662755897063,-6,0,1,0,-3,-3,-2,0
1461662755913113,-3,-9,-10,-10,-5,-1,-1,-2
1461662755913113,-1,-2,1,-3,-1,-2,-3,-5
1461662755927095,0,-4,-4,1,-1,-1,0,-3
1461662755927095,1,11,6,17,7,1,2,1
1461662755936148,-8,-19,-20,-26,-10,-5,-3,-3
1461662755936148,1,4,5,9,0,-1,-1,-1
1461662755937097,-2,-4,-3,5,3,0,-1,-2
1461662755937097,-1,-1,2,0,1,0,0,1
1461662755950158,2,6,0,-2,0,1,2,-2
1461662755950158,-1,-3,1,3,0,-3,-1,-2
1461662755957116,-1,-3,-5,-12,-7,-3,-3,-1
1461662755957116,0,1,-4,2,1,1,0,1
1461662755973116,-1,4,-4,-4,-6,-3,0,3
1461662755973116,-2,-5,-6,7,-1,0,-1,-3
1461662755979178,-1,-4,-6,-11,-1,0,-1,-2
1461662755979178,2,0,4,3,2,-1,2,0
1461662755996191,1,1,-1,2,2,2,1,2
1461662755996191,1,-5,-4,-5,-5,-1,1,0
1461662755997132,-2,-2,0,5,3,-1,-3,-4
1461662755997132,0,-3,-5,-15,-5,-2,-3,-1
1461662756011152,-2,0,3,6,-2,-2,-1,-2
1461662756011152,2,3,1,-18,-7,-3,0,0
1461662756017205,-2,0,-2,-4,-2,-3,-2,-4
1461662756017205,-3,-6,1,11,6,1,0,0
1461662756033169,3,1,3,-3,0,0,0,1
1461662756033169,-5,-3,-12,-22,-8,-3,-4,-2
1461662756039221,-1,-1,6,5,-5,0,4,1
1461662756039221,1,1,2,1,3,0,-2,-3
1461662756056186,2,-5,2,2,-1,-2,0,-1
1461662756056186,2,-3,-2,3,2,3,6,1
1461662756057175,2,11,-6,-4,-2,0,-2,3
1461662756057175,-12,-16,-7,-17,-2,1,-6,1
1461662756069256,1,4,10,27,11,1,-8,0
1461662756069256,2,1,7,15,-2,-9,-20,-3
1461662756078259,-1,2,-7,-3,-3,-5,-5,-4
1461662756078259,-6,-2,-4,1,-5,0,23,2
1461662756092311,6,9,-3,-26,-7,1,0,5
1461662756092311,-14,3,-11,-27,-11,-2,-17,-15
1461662756099314,-3,-11,3,27,13,2,-1,-2
1461662756099314,-3,-13,-5,-2,-3,-2,-9,-4
1461662756116332,0,-1,-4,-20,-13,-5,8,0
1461662756116332,10,7,5,33,11,7,15,6
1461662756117270,-10,-12,-6,-20,-7,-3,-6,-5
1461662756117270,-2,11,9,9,1,-2,3,-1
1461662756129307,-3,-4,2,-4,-4,-2,-2,-1
1461662756129307,10,-5,-4,2,6,5,17,9
1461662756138286,8,5,-4,-23,-8,-1,0,-1
1461662756138286,2,3,2,4,0,2,11,2
1461662756152310,-12,-1,-2,18,5,0,0,1
1461662756152310,0,3,5,2,0,-4,-15,0
1461662756159315,1,-8,12,-8,-9,-4,-15,-1
1461662756159315,6,11,-22,21,20,2,-14,-4
1461662756176342,8,9,-9,-20,-8,-6,-11,-5
1461662756176342,-19,-12,14,30,4,0,12,-3
1461662756177328,-5,4,-12,-21,-6,-2,-5,5
1461662756177328,-1,-8,-8,-38,-19,-12,-13,-9
1461662756189381,6,-4,7,43,17,5,11,-1
1461662756189381,5,5,-7,-37,-16,-3,-14,-5
1461662756198328,3,6,17,19,-1,-2,5,-2
1461662756198328,-5,-15,-20,10,15,5,7,1
1461662756212352,-5,-10,-2,3,-3,-2,4,-1
1461662756212352,2,7,4,-25,-4,0,11,1
1461662756219403,4,-1,-8,-26,-2,6,32,4
1461662756219403,1,15,10,4,-6,0,-23,3
1461662756236374,5,2,7,-11,-11,-2,0,4
1461662756236374,1,-4,-1,39,31,11,9,9
1461662756237354,3,-11,-10,3,2,-4,-19,-4
1461662756237354,-13,0,6,5,-7,-11,-22,-13
1461662756249423,-10,17,3,-41,-21,-9,-29,-16
1461662756249423,-2,-37,-26,-24,-7,-4,28,1
1461662756258372,8,2,4,29,13,2,-11,11
1461662756258372,2,2,-13,-36,-24,-16,-16,-2
1461662756272379,-7,-22,2,18,7,0,-35,-15
1461662756272379,-6,14,7,-19,-12,-1,-1,-7
1461662756288390,-11,6,14,57,20,5,23,-4
1461662756288390,14,-2,17,34,17,10,11,8
1461662756295418,2,-2,-7,-18,9,9,48,12
1461662756295418,-7,-28,-20,-26,-8,4,-7,-3
1461662756297413,-4,8,3,-11,-10,-3,-35,-12
1461662756297413,0,-9,9,20,3,-5,0,-5
1461662756309423,13,8,-16,19,15,4,7,18
1461662756309423,-13,3,20,6,-11,0,3,-4
1461662756318413,5,14,-25,-58,-24,0,34,11
1461662756318413,16,-33,23,40,14,-3,-61,-8
1461662756332424,5,-1,2,-10,-4,-11,19,2
1461662756332424,-1,27,16,26,7,-3,-34,8
1461662756339443,-34,1,-25,-78,-26,-12,-20,-24
1461662756339443,-57,-26,-12,43,4,10,43,-11
1461662756355456,-7,-49,-15,-22,-12,-2,-9,-6
1461662756355456,11,17,1,-11,-8,-14,-10,-3
1461662756362455,7,-16,15,-23,-12,5,26,11
1461662756362455,24,29,-4,24,18,14,19,12
1461662756369460,8,5,6,9,-3,-10,-22,8
1461662756369460,8,9,-18,-44,-7,4,22,-5
1461662756378454,-4,-16,23,109,51,11,-5,3
1461662756378454,-8,31,-3,-41,-15,-9,-6,-16
1461662756392476,-9,14,0,4,-10,-1,-13,1
1461662756392476,7,-10,23,21,2,8,40,33
1461662756399481,-8,1,-6,5,5,-1,-34,-9
1461662756399481,-7,8,-20,-86,-31,-18,-32,-23
1461662756415520,8,-6,6,66,29,6,14,-4
1461662756415520,14,-7,-18,-54,-31,-14,-25,-22
1461662756421502,-6,-17,-4,-9,-3,10,74,4
1461662756421502,8,-12,11,40,19,14,0,20
1461662756429508,-4,8,-4,-46,-18,-11,-34,-15
1461662756429508,-13,3,-15,7,-4,-19,-33,-2
1461662756438498,-6,-16,32,2,-8,0,21,14
1461662756438498,1,8,-39,-65,-9,2,26,13
1461662756452548,13,11,8,-10,-7,1,-12,-5
1461662756452548,-11,-18,-14,52,29,11,-23,-18
1461662756459513,-4,20,0,2,-16,-20,-42,-25
1461662756459513,21,23,18,-23,-25,3,29,14
1461662756475548,4,-1,-17,-20,20,16,37,12
1461662756475548,-13,-12,18,62,8,10,4,0
1461662756481543,-20,9,-14,47,44,7,-23,-8
1461662756481543,-7,-28,3,-33,-17,-12,-11,4
1461662756489535,18,14,-6,29,5,3,20,2
1461662756489535,-17,9,-2,-47,-21,6,72,13
1461662756505548,15,21,-18,-29,-17,-4,-57,-12
1461662756505548,5,56,19,58,20,-7,-19,-28
1461662756512557,-2,-16,-14,-50,-22,-10,-34,-7
1461662756512557,-31,-41,2,-12,-9,-25,-18,3
1461662756519563,11,7,18,73,11,2,11,17
1461662756519563,-33,86,-11,-50,-17,3,3,-20
1461662756535571,11,-60,13,44,30,17,11,2
1461662756535571,6,-35,-2,-1,-7,0,2,-7
1461662756541571,-6,-15,-41,-60,-13,-6,-1,-9
1461662756541571,30,12,30,43,2,-3,5,13
1461662756559585,-13,18,-25,-42,-23,-5,19,6
1461662756559585,26,8,24,86,41,30,40,34
1461662756561584,-4,-4,4,-46,-11,-3,-33,-25
1461662756561584,8,-24,21,-7,-4,-6,-16,2
1461662756572592,-34,-17,-22,33,4,-4,30,13
1461662756572592,22,-6,-6,-27,4,2,-33,-2
1461662756587604,13,1,-1,20,-2,-14,2,-4
1461662756587604,-9,-42,-11,2,15,22,70,21
1461662756595672,1,-15,12,4,1,0,-85,-31
1461662756595672,-20,20,-36,-79,-30,-43,-100,-30
1461662756602645,2,-7,32,7,-20,-15,8,6
1461662756602645,8,-27,14,90,33,10,54,26
1461662756618654,-10,10,7,-18,-7,2,8,-6
1461662756618654,10,17,3,19,20,11,17,-11
1461662756619655,3,-9,-8,-3,3,14,19,9
1461662756619655,8,-20,-1,-70,-45,-17,11,1
1461662756632634,13,-7,-9,5,16,23,53,37
1461662756632634,-33,-16,21,82,27,-12,-57,-46
1461662756639638,-8,-24,-26,-75,-17,-8,-14,-15
1461662756639638,19,-4,40,15,-36,1,78,28
1461662756655651,-1,14,-26,23,41,10,-54,3
1461662756655651,23,10,5,15,19,-2,-27,13
1461662756661654,5,1,8,-20,-8,12,32,19
1461662756661654,-29,4,-36,-23,9,6,-50,-46
1461662756678667,0,-7,23,-31,-24,-27,-17,-14
1461662756678667,11,2,2,-9,-14,-6,14,-5
1461662756679667,27,6,7,40,19,12,33,8
1461662756679667,7,-4,-29,-86,-25,-4,-16,24
1461662756692677,-69,-3,27,70,14,-6,15,-8
1461662756692677,-30,2,-20,-27,-13,11,91,14
1461662756699682,4,1,7,5,-11,2,-25,-18
1461662756699682,-15,-7,-36,10,19,-11,-62,-23
1461662756715692,47,-8,10,13,-1,0,-42,-19
1461662756715692,33,-1,-1,-114,-71,-26,8,17
1461662756721700,8,-4,0,99,42,14,39,7
1461662756721700,-4,-15,14,46,35,19,22,30
1461662756738717,67,0,2,-16,-8,-10,-2,19
1461662756738717,-21,-2,-18,-51,-13,2,-6,-10
1461662756739719,-98,-8,-20,-127,-65,-21,-28,-42
1461662756739719,-58,2,-1,80,38,-6,-45,-23
1461662756762729,37,-4,2,6,14,11,22,-8
1461662756762729,45,3,8,-2,-3,0,-19,0
1461662756763726,32,-3,-4,1,9,5,28,17
1461662756763726,-8,5,-1,-28,-16,-2,11,11
1461662756775737,-40,-4,-3,-26,-20,-14,-12,14
1461662756775737,-61,-9,4,12,7,7,-13,-5
1461662756781741,-35,-2,-7,10,5,-4,12,-12
1461662756781741,16,-1,-12,-69,-46,-3,-43,-36
1461662756798752,-9,8,-5,40,29,-1,23,25
1461662756798752,45,-3,6,-15,-14,1,-12,-1
1461662756799753,-1,-1,6,42,23,-1,-2,-4
1461662756799753,-32,-5,1,-30,-2,9,26,-6
1461662756812761,0,6,-11,-74,-30,10,5,-10
1461662756812761,-41,-11,-8,72,20,-10,-12,-1
1461662756819770,35,-7,-12,-34,-17,-26,-34,12
1461662756819770,-9,1,16,17,1,-7,-20,-15
1461662756834811,34,1,3,1,-4,-2,-4,-9
1461662756834811,56,-8,4,8,13,12,37,32
1461662756841846,32,6,0,-8,-8,1,-20,5
1461662756841846,-44,-5,-8,-10,-5,-14,-13,-2
1461662756858825,-86,3,-15,-1,-12,0,26,-16
1461662756858825,-47,-3,-10,-12,0,1,-9,-25
1461662756859798,44,-9,-2,-61,-27,-7,-9,1
1461662756859798,63,4,23,8,16,2,0,13
1461662756871832,4,10,18,44,18,5,8,-3
1461662756871832,-26,-4,3,3,8,1,-3,-5
1461662756880839,29,-7,5,33,16,5,16,18
1461662756880839,38,5,-14,-31,-11,6,24,-1
1461662756895821,37,4,6,-29,-23,-14,-29,-12
1461662756895821,-58,-11,-12,15,9,-4,5,8
1461662756901840,-74,-4,-7,9,-4,-17,-27,-14
1461662756901840,7,-2,-10,1,-2,-32,-1,11
1461662756917835,-4,9,-7,-7,-5,45,26,-1
1461662756917835,54,-4,13,16,13,21,-11,-7
1461662756925842,-4,2,6,2,1,7,1,3
1461662756925842,20,-13,-9,9,1,-5,-13,-2
1461662756931906,-18,1,-18,-55,-33,-36,-8,-5
1461662756931906,8,-2,-5,-39,8,9,23,1
1461662756946916,1,3,20,43,25,11,4,9
1461662756946916,3,1,8,14,13,-5,-9,-1
1461662756954877,-7,7,5,-17,0,-3,6,6
1461662756954877,-1,5,-15,5,-3,1,-4,-7
1461662756961879,13,9,3,-5,-3,-8,-7,-4
1461662756961879,-23,1,-6,12,9,10,-5,-6
1461662756985896,-5,10,3,-15,-10,-1,1,4
1461662756985896,1,-6,6,9,-3,-4,-9,-7
1461662756987885,0,0,0,10,9,2,33,9
1461662756987885,7,0,0,2,-2,14,-18,-11
1461662757000953,-15,2,-10,0,-6,-48,-30,-1
1461662757000953,6,-7,0,10,-2,-20,-4,-6
1461662757002954,-12,107,-3,3,4,36,5,0
1461662757002954,-6,-56,-9,-16,-8,6,-2,4
1461662757014963,3,-102,2,17,8,5,-3,-6
1461662757014963,5,-118,-10,-23,-18,-14,-1,-2
1461662757021940,-24,-92,-19,-30,-5,-9,1,-3
1461662757021940,15,-6,14,40,7,1,14,-1
1461662757038951,1,29,11,18,22,7,-3,0
1461662757038951,4,82,10,27,12,0,5,6
1461662757039951,-5,34,-6,2,-2,-2,-9,-6
1461662757039951,-1,-10,-2,-24,-18,-8,-9,1
1461662757051945,13,-39,-5,11,3,1,4,-2
1461662757051945,-16,17,-11,-13,-10,7,-1,-6
1461662757060952,5,-6,3,2,-2,-1,-5,7
1461662757060952,-11,-18,-12,-12,-3,-6,-15,-15
1461662757074962,-13,40,-2,-7,-6,0,5,5
1461662757074962,15,61,0,-5,-3,0,4,4
1461662757082011,-20,34,2,3,-1,-1,-12,-2
1461662757082011,16,-13,2,4,1,-7,2,12
1461662757098021,-8,-2,1,2,1,10,-1,-9
1461662757098021,14,47,8,9,2,5,5,1
1461662757099979,3,-2,-2,0,1,-4,2,2
1461662757099979,-1,16,-3,1,-2,-5,1,0
1461662757111985,5,8,-3,-10,-7,0,0,-6
1461662757111985,2,0,0,-4,0,9,5,3
1461662757120979,-6,-3,-16,-42,-20,-8,-3,-5
1461662757120979,4,28,18,28,13,11,6,1
1461662757135047,6,10,3,23,15,-5,1,2
1461662757135047,-5,-8,-3,-16,-3,-6,-4,-4
1461662757142103,-1,16,1,10,3,0,-6,-6
1461662757142103,12,4,-4,-10,-6,-6,3,4
1461662757158054,-4,44,3,-8,-7,1,-1,-2
1461662757158054,-32,-11,0,5,-4,-7,-9,-6
1461662757160056,2,-30,-6,-3,2,9,-5,0
1461662757160056,1,4,-6,-13,-5,-9,8,2
1461662757172064,4,-7,10,5,-3,4,-4,-1
1461662757172064,4,-16,-4,-7,3,16,4,5
1461662757181071,2,-48,2,8,4,-9,-1,4
1461662757181071,-3,-29,1,6,4,4,3,2
1461662757195140,3,-16,-6,-7,-5,-8,1,-2
1461662757195140,8,-5,0,3,-5,-14,-5,-3
1461662757202145,-2,-18,-3,13,4,-5,0,3
1461662757202145,-6,14,13,-3,-1,8,2,-3
1461662757218157,-1,15,-2,-12,-6,0,2,-3
1461662757218157,0,-11,-20,-5,-3,3,-1,-1
1461662757220100,-2,9,-4,10,4,-1,2,0
1461662757220100,-4,-4,5,-5,2,0,-1,-1
1461662757232136,-3,11,6,-11,-9,-2,0,-4
1461662757232136,3,-1,10,20,9,2,0,2
1461662757241147,2,17,0,-4,3,0,-2,-1
1461662757241147,2,10,8,22,2,1,-1,-1
1461662757255132,-3,12,-9,-10,-4,2,2,-3
1461662757255132,5,-5,-4,-8,0,0,2,3
1461662757262137,-1,7,5,2,-3,-5,-1,-1
1461662757262137,-9,2,-5,-9,0,4,-1,1
1461662757286175,-4,-20,3,0,-1,-4,-2,-2
1461662757286175,8,11,13,4,-1,-6,-7,0
1461662757287172,-7,-27,-19,-10,-5,-4,0,0
1461662757287172,-7,-3,-6,-5,1,21,4,1
1461662757292151,0,0,2,5,2,-6,-5,2
1461662757292151,7,1,-2,-6,-4,13,8,1
1461662757301185,3,-3,12,8,-2,-4,-3,2
1461662757301185,-4,1,-16,-9,-4,-6,-1,-3
1461662757315195,-2,-9,-7,-4,-1,-1,-2,-2
1461662757315195,3,0,-1,-2,0,-9,-7,-1
1461662757322186,3,13,29,8,0,2,-1,1
1461662757322186,-9,-16,-25,-12,-5,-7,-3,-4
1461662757338182,3,1,5,-13,-8,-1,-2,-2
1461662757338182,-4,-2,-5,18,12,-1,-1,-3
1461662757344202,-4,-8,-9,-12,-3,1,-2,-2
1461662757344202,-5,2,13,12,2,-6,-3,-2
1461662757352204,3,-1,-3,2,0,-1,2,1
1461662757352204,-2,-9,-1,-1,-6,0,0,-3
1461662757361199,0,-3,-8,-8,-2,2,-1,0
1461662757361199,-7,0,5,12,2,-4,-1,-1
1461662757375220,0,-3,-6,-1,-3,0,-1,-2
1461662757375220,-2,-10,-6,-4,0,-1,-1,-1
1461662757382226,-5,-2,2,2,-1,-2,-4,-1
1461662757382226,5,0,-10,-12,-4,-3,-2,0
1461662757405229,-4,-8,-10,6,6,4,2,-3
1461662757405229,2,3,-4,-3,-2,-1,-2,1
1461662757414236,-4,-3,7,2,-2,-2,-1,-2
1461662757414236,0,2,1,-5,-6,-4,0,-1
1461662757415249,1,7,3,3,1,1,1,0
1461662757415249,0,-11,-10,-7,-3,-3,-2,-1
1461662757421255,-4,-8,-10,-1,-2,-1,0,-3
1461662757421255,1,6,0,-3,-3,-4,-1,-1
1461662757435311,1,-3,-5,-1,1,3,1,0
1461662757435311,3,10,9,3,0,-2,-2,0
1461662757442319,-3,6,14,-8,3,1,-1,0
1461662757442319,-7,-13,-9,3,0,-1,-4,-6
1461662757458297,0,-3,3,8,2,0,0,0
1461662757458297,4,11,-1,-11,-5,-2,-2,-2
1461662757472306,-1,-6,0,3,-6,-1,-3,0
1461662757472306,2,0,-3,-5,2,-2,-2,2
1461662757481313,0,-6,-3,3,0,-1,-2,-2
1461662757481313,0,1,5,5,0,-1,-2,-2
1461662757482286,0,0,-1,1,-1,-3,-1,0
1461662757482286,-1,-2,0,-8,-5,-4,-3,-1
1461662757495323,-3,-3,-1,2,0,0,-2,0
1461662757495323,-6,-1,6,1,3,0,1,0
1461662757502315,0,0,-3,0,0,-2,-1,1
1461662757502315,0,-2,-3,1,-2,1,0,-1
1461662757517325,0,3,3,-1,0,-3,0,-2
1461662757517325,-2,-5,-7,-7,-5,-4,-2,-2
1461662757524330,-3,-4,-3,3,1,1,1,-1
1461662757524330,-1,1,0,-2,-3,-1,-1,0
1461662757541386,-2,0,1,2,2,0,0,-1
1461662757541386,1,-1,0,-6,-6,-2,1,0
1461662757542341,-1,-2,-5,1,3,1,-1,-2
1461662757542341,2,0,3,5,1,-1,-3,-1
1461662757555350,1,1,-3,-6,-3,-1,-1,-1
1461662757555350,0,-4,2,10,0,-1,-1,0
1461662757563371,0,1,2,2,0,1,3,2
1461662757563371,-2,-1,-1,-8,-4,-1,-1,-2
1461662757577356,-3,-5,-5,-5,-4,-3,-2,-1
1461662757577356,1,0,-6,-2,-3,-1,0,0
1461662757584385,0,-1,-7,-5,-4,-2,-1,0
1461662757584385,1,3,2,1,4,-1,-1,2
1461662757601389,0,-1,8,-5,-4,-2,-2,0
1461662757601389,-4,-7,-10,-2,3,1,-1,-3
1461662757602371,0,-2,-4,-8,-4,-3,-2,-1
1461662757602371,1,0,3,3,0,-1,1,0
1461662757615382,1,1,9,15,6,1,0,0
1461662757615382,1,7,1,-8,-4,-1,-1,1
1461662757622383,2,9,-1,-9,1,0,0,0
1461662757622383,-5,-17,-8,13,1,-1,-2,0
1461662757637395,0,5,10,-7,-1,-1,-1,0
1461662757637395,-6,-12,-5,-4,1,-1,2,-1
1461662757644461,-1,-5,-7,0,-5,-4,-2,-2
1461662757644461,3,4,-1,-9,-4,-2,-1,-2
1461662757659527,-4,-11,-13,-6,-1,1,-2,-2
1461662757659527,0,1,7,6,-3,-1,-2,-1
1461662757675537,-4,-1,0,7,4,-1,-4,0
1461662757675537,0,0,-3,-4,0,0,-1,-1
1461662757676537,0,-2,-8,-6,-3,-2,-1,-1
1461662757676537,-3,3,-2,-9,-5,-4,-3,-1
1461662757682550,0,-3,4,7,2,1,-2,1
1461662757682550,1,3,1,0,1,1,-2,0
1461662757697538,-2,-5,-7,-3,-1,-1,-1,-1
1461662757697538,2,2,-6,-6,-5,0,-3,-1
1461662757704542,-3,-2,-1,1,0,0,2,-1
1461662757704542,1,0,-3,-6,-3,-1,-1,2
1461662757721556,-1,4,0,-2,-5,-2,-1,-2
1461662757721556,-3,-2,0,-19,-5,-4,-2,-2
1461662757722556,-2,-3,6,27,9,2,1,0
1461662757722556,0,3,-8,-12,-5,-2,0,-1
1461662757735563,-1,-2,8,21,7,0,-1,0
1461662757735563,0,3,0,5,7,1,1,0
1461662757742568,-5,-3,-1,-7,-5,-2,-4,-2
1461662757742568,1,2,0,-1,-2,-1,-1,-2
1461662757757579,-1,-3,-6,-5,-3,-1,0,-1
1461662757757579,0,-2,-3,-9,-3,-2,-1,-1
1461662757764584,0,2,0,2,-2,-1,0,0
1461662757764584,-2,-5,0,1,0,1,-1,-2
1461662757780654,3,5,0,-7,-5,-2,-1,0
1461662757780654,0,2,-2,5,0,0,0,-2
1461662757782605,-2,-4,-4,-3,1,2,0,0
1461662757782605,0,-1,-6,-3,-1,-1,0,0
1461662757795663,0,-1,-3,-6,2,1,-1,-1
1461662757795663,0,-2,-1,3,1,1,1,-1
1461662757802645,-2,1,1,1,-7,-2,-2,-2
1461662757802645,0,-2,-4,-10,-2,-1,0,-2
1461662757817623,-1,-1,3,2,0,-1,-1,-1
1461662757817623,0,3,2,6,5,3,1,2
1461662757824629,-3,-8,-4,-6,-1,-2,-1,-2
1461662757824629,-1,7,8,13,2,-1,-2,-1
1461662757840638,-1,1,-7,-13,-4,-3,-2,-1
1461662757840638,-2,-4,-1,6,0,0,-1,-2
1461662757842640,-3,-1,-4,-7,-1,-1,0,0
1461662757842640,0,-4,-1,-7,-4,-3,-1,-2
1461662757855650,0,-5,-6,1,3,2,-1,-2
1461662757855650,-2,-3,-1,-3,-3,0,-2,0
1461662757861653,-1,0,0,2,-1,-1,-3,-1
1461662757861653,0,-3,-2,-4,-3,-2,-2,-1
1461662757877663,-2,-3,-6,-14,-9,-5,-3,-3
1461662757877663,0,2,12,13,3,-2,0,2
1461662757884669,1,1,3,15,6,2,-1,-1
1461662757884669,2,2,2,6,0,0,0,0
1461662757900739,-4,-5,-4,-4,-3,-2,0,-1
1461662757900739,-1,-2,-4,-8,-6,-2,-1,-1
1461662757902683,0,1,1,-6,-6,-4,-1,-1
1461662757902683,5,4,3,2,6,2,0,0
1461662757915752,-2,-2,3,11,1,-2,0,0
1461662757915752,-3,-3,-9,-14,-2,0,-2,-3
1461662757921695,-3,-3,1,-2,-1,-2,0,0
1461662757921695,-1,-2,-5,-11,-6,-4,-2,-1
1461662757937721,-3,-6,-3,-4,-2,0,-1,-3
1461662757937721,1,1,6,10,3,2,1,1
1461662757945755,1,1,-5,-3,0,0,-1,-1
1461662757945755,-4,-6,-6,-5,-2,0,-1,-3
1461662757960735,0,1,1,0,-2,-1,0,1
1461662757960735,-2,-2,1,5,-6,-3,-1,0
1461662757963727,0,-3,-1,-3,-1,1,0,0
1461662757963727,0,1,0,-1,1,0,1,2
1461662757974745,3,3,2,9,6,1,0,1
1461662757974745,0,0,-1,-6,-3,-2,-2,-2
1461662757983751,0,1,2,2,-4,-2,-1,-1
1461662757983751,0,-4,-10,-9,-1,-2,0,1
1461662757997749,-2,-1,-4,-10,-5,-1,-1,-2
1461662757997749,2,3,1,8,5,1,0,0
1461662758005754,-3,0,-7,-9,-5,-3,-2,-1
1461662758005754,-4,-5,3,9,2,0,-2,-1
1461662758020766,0,-3,-4,-13,-6,-2,-2,-1
1461662758020766,-1,1,6,21,7,0,1,1
1461662758022779,-1,0,-1,1,-1,0,1,0
1461662758022779,1,-1,0,-5,-1,0,0,-1
1461662758034834,-2,-2,-5,-3,-1,-4,-3,-1
1461662758034834,-5,-6,-5,-15,-8,-3,-5,-3
1461662758043796,1,0,2,8,5,1,1,-1
1461662758043796,1,1,4,4,2,0,0,-2
1461662758057803,1,-1,-1,8,3,0,1,-2
1461662758057803,-3,-4,-4,-9,-3,-3,-2,-1
1461662758064855,-4,-3,-4,-11,-5,-2,-1,1
1461662758064855,2,1,0,0,-1,1,-1,-2
1461662758080837,1,3,8,4,-4,0,-2,-1
1461662758080837,0,-1,-9,-11,-3,-1,1,-2
1461662758082838,-3,-3,-3,-4,-2,-1,-2,-2
1461662758082838,1,-1,-1,4,3,0,0,-1
1461662758094881,0,-3,-1,2,-4,-2,-2,-1
1461662758094881,-2,-2,5,7,5,0,-1,-2
1461662758103844,-1,-2,-3,-2,-3,-1,0,-1
1461662758103844,0,-1,-3,-6,-5,-1,-1,1
1461662758117852,0,1,-2,-9,-2,-1,-1,0
1461662758117852,-1,1,6,21,4,1,2,0
1461662758124857,-1,-1,-2,-4,-2,-2,0,-3
1461662758124857,-2,-2,-2,-3,-3,-2,-1,-3
1461662758139909,0,1,-2,6,3,0,2,-1
1461662758139909,-2,3,-6,-14,-3,-1,0,-3
1461662758148857,-3,-3,0,2,1,-1,0,0
1461662758148857,-2,1,1,-1,-4,0,-2,-2
1461662758154874,-1,-3,-6,-7,-4,-2,0,0
1461662758154874,-2,-3,-3,-2,-1,-1,0,-2
1461662758163885,-1,-2,0,-4,-2,-2,-2,-1
1461662758163885,1,-1,-1,-6,-3,0,-1,-1
1461662758177935,1,1,1,-3,-2,-2,0,-1
1461662758177935,-1,-3,-4,-1,-1,-2,-2,0
1461662758184941,2,0,-4,-6,-4,-1,-1,-1
1461662758184941,-1,-2,-7,-18,-6,-3,-2,0
1461662758200950,-2,1,9,23,9,2,0,-1
1461662758200950,-1,-2,2,4,2,0,-1,0
1461662758202951,-2,-4,-5,-5,-2,-1,-2,-1
1461662758202951,0,5,3,9,0,-2,-1,-1
1461662758214962,4,1,-4,-5,0,-1,2,-1
1461662758214962,-4,0,-5,-14,-8,-3,-1,-3
1461662758223997,-4,-2,2,7,2,-1,-2,-3
1461662758223997,0,-4,1,-6,-2,1,1,1
1461662758238022,0,-2,-4,-3,0,-2,-2,-2
1461662758238022,-3,1,4,12,5,1,-1,0
1461662758245041,-2,-1,-1,-2,-4,-3,-2,-1
1461662758245041,-1,-2,-1,2,1,0,0,-1
1461662758260023,-1,-1,-1,-1,-1,-1,-1,0
1461662758260023,0,-1,-1,-9,-5,-2,0,0
1461662758267088,-3,-3,-3,-5,0,0,0,-1
1461662758267088,0,-3,1,1,-2,-3,0,-1
1461662758275046,-1,-1,-1,6,3,0,0,0
1461662758275046,-1,-1,-2,-4,-3,-2,-3,-2
1461662758284100,1,2,-2,-9,-2,-1,0,1
1461662758284100,-2,-3,0,14,2,1,-1,-2
1461662758298052,-2,-2,-4,-7,-6,-3,-3,-4
1461662758298052,-3,0,6,10,4,0,-1,-1
1461662758305055,2,2,-2,-6,-3,0,0,1
1461662758305055,3,-2,-4,-7,-5,-3,0,0
1461662758320068,-3,-5,2,15,9,3,2,0
1461662758320068,-2,-3,-6,-7,-4,-2,-4,-1
1461662758327072,0,0,-1,-1,0,0,-1,-1
1461662758327072,-1,0,2,0,-2,-2,0,-2
1461662758334089,-1,-1,3,3,0,0,-1,-1
1461662758334089,-2,-2,-10,-1,-2,-1,-2,-2
1461662758344095,-2,-1,5,6,0,-2,0,0
1461662758344095,-1,1,-2,-4,-3,-2,-2,-2
1461662758358110,0,1,-1,-6,-3,-1,-2,-1
1461662758358110,-1,0,1,-5,0,0,0,0
1461662758364111,-2,-4,-8,-10,-7,-2,-1,-3
1461662758364111,0,-1,6,3,-2,-2,-1,-2
1461662758380122,1,-2,-3,-4,3,1,1,-1
1461662758380122,-1,0,5,3,-1,-2,1,1
1461662758387127,-2,-2,-8,-2,1,0,0,0
1461662758387127,0,-3,0,2,2,1,-1,1
1461662758394158,-2,-3,1,2,-3,-1,-1,-2
1461662758394158,1,2,-3,-5,-3,-1,-1,0
1461662758404125,-2,0,3,8,4,-1,-2,-2
1461662758404125,1,-1,-6,-6,-4,-1,0,0
1461662758418174,1,3,3,-2,0,-1,-2,0
1461662758418174,-2,-5,3,2,1,0,0,0
1461662758424138,0,4,4,-2,-2,-3,-1,0
1461662758424138,-3,-5,-8,1,1,-2,-1,-2
1461662758440171,-5,-12,-13,-10,-7,-1,-2,-3
1461662758440171,2,11,22,0,-1,0,1,-1
1461662758447220,-1,-11,-37,-10,-2,1,0,1
1461662758447220,-5,-10,-5,5,5,-1,-3,-1
1461662758463168,4,17,32,7,-3,-4,-1,0
1461662758463168,-7,-2,-2,-18,-3,-2,-2,-2
1461662758465171,-6,-29,-47,1,-4,-3,-2,-4
1461662758465171,5,6,18,10,7,2,0,2
1461662758478181,0,-1,-10,5,-3,-1,-2,0
1461662758478181,-1,7,7,-2,0,-1,0,-2
1461662758484202,0,12,26,7,2,-1,-3,0
1461662758484202,1,-3,-2,-5,-2,-2,0,0
1461662758500252,4,16,19,-11,-2,-1,0,1
1461662758500252,-5,-16,-26,15,2,0,-1,-1
1461662758509199,-3,0,6,-2,-2,-1,1,0
1461662758509199,-2,-6,-12,0,1,-1,-1,0
1461662758523224,1,0,-4,-8,-2,0,-6,-5
1461662758523224,-4,1,1,-5,-4,-2,-3,-3
1461662758525226,0,3,9,-2,1,1,-1,-1
1461662758525226,0,7,15,2,-1,-2,1,2
1461662758538237,4,1,-4,0,0,-2,3,3
1461662758538237,-8,-18,-16,-10,-4,-2,-2,-4
1461662758545241,0,-2,-15,5,0,-2,0,0
1461662758545241,3,1,-5,-10,-5,0,0,-1
1461662758560250,-6,-6,-7,0,-2,-2,-2,-3
1461662758560250,0,-1,3,7,3,0,1,-1
1461662758567300,2,13,26,0,-3,-2,-1,2
1461662758567300,-1,-1,-13,-10,-7,-3,-2,-3
1461662758583311,4,-3,3,23,17,7,3,3
1461662758583311,-1,0,2,19,4,1,-1,-1
1461662758585286,0,1,3,3,3,0,0,0
1461662758585286,1,-3,-6,-1,-3,1,-1,-2
1461662758598278,-8,-12,-13,-10,-7,-3,-3,-4
1461662758598278,-4,-4,0,-11,-8,-2,0,-1
1461662758604268,1,-2,-4,1,3,0,0,-2
1461662758604268,1,5,7,1,-2,-1,-2,-3
1461662758620337,-3,-9,-14,-10,-8,-3,-2,0
1461662758620337,1,3,-1,2,6,1,-1,1
1461662758627295,-2,3,5,-8,-7,-1,-2,-2
1461662758627295,0,-1,1,4,3,-1,0,-2
1461662758643325,1,4,6,-14,-8,-1,0,-1
1461662758643325,-8,-26,-38,-1,-4,-2,-1,-3
1461662758645325,5,11,27,8,5,2,2,1
1461662758645325,-5,-6,-20,-8,-2,-2,1,-1
1461662758658307,-3,-9,-13,1,-2,-3,-3,-3
1461662758658307,5,15,26,2,0,-1,1,3
1461662758664311,-1,-1,-2,-4,1,0,-3,-1
1461662758664311,2,2,1,10,3,0,0,1
1461662758680328,2,1,-9,-19,-3,1,0,2
1461662758680328,-7,7,7,-1,-5,-3,-4,-8
1461662758687332,-4,-14,13,5,-2,-1,0,1
1461662758687332,0,8,0,-10,-3,0,-1,-2
1461662758704341,0,-1,-4,3,0,-2,1,-1
1461662758704341,2,3,-1,-4,-1,-2,-2,1
1461662758705341,1,5,-1,-1,-1,0,-2,0
1461662758705341,-2,-5,-2,2,-1,0,-2,-1
1461662758717349,-2,-4,-5,2,-1,-1,0,-1
1461662758717349,1,4,-6,-5,-5,-2,0,3
1461662758724353,-3,18,35,-4,-6,-3,-2,-2
1461662758724353,-8,-32,-56,0,4,1,0,-1
1461662758740366,1,8,1,-2,1,-1,-1,-1
1461662758740366,-2,3,9,-3,0,0,0,-2
1461662758747421,-1,-13,-35,5,0,1,-1,-2
1461662758747421,2,6,21,3,-1,-2,-1,-1
1461662758763423,-1,0,2,0,-1,-1,-1,0
1461662758763423,0,9,19,-20,-14,-3,-1,2
1461662758765424,3,-1,14,14,8,0,0,0
1461662758765424,-2,18,27,4,1,-1,0,-3
1461662758777404,-1,-12,-18,3,0,0,-3,-3
1461662758777404,-3,-4,-6,-6,-1,1,0,-3
1461662758786415,4,16,-7,-23,-11,-1,1,-1
1461662758786415,-8,-21,4,14,3,-1,-4,-2
1461662758800459,1,10,15,3,1,-1,-2,2
1461662758800459,-4,-3,-1,5,0,-1,-3,-1
1461662758807440,5,7,-5,4,1,4,13,4
1461662758807440,4,-1,-19,-22,-2,4,-6,2
1461662758823447,-11,-4,3,0,-4,-4,-13,-9
1461662758823447,-4,-9,-17,11,-3,-11,-13,-3
1461662758825448,-1,3,20,4,-2,-6,-7,-7
1461662758825448,3,11,20,-8,-15,-6,2,0
1461662758837459,8,13,-12,-26,-4,5,8,2
1461662758837459,-1,18,66,53,23,6,2,5
1461662758844490,-16,-51,-68,-18,-3,-3,-3,-4
1461662758844490,0,2,12,7,17,5,5,4
1461662758860473,-2,2,-3,-1,0,-4,-1,0
1461662758860473,9,14,15,-53,-32,-7,2,-7
1461662758867507,-14,-25,5,32,12,8,3,2
1461662758867507,0,-11,-58,-10,4,6,8,-1
1461662758883517,3,4,23,24,9,1,-1,1
1461662758883517,-3,-3,-6,-21,-3,-6,-3,-2
1461662758885497,3,-9,-27,-13,-10,-5,-3,0
1461662758885497,-4,5,-1,-1,-6,2,12,-1
1461662758897529,7,7,12,1,-2,5,-6,3
1461662758897529,-1,6,28,3,-1,-5,-8,-3
1461662758906506,-1,-21,-53,-21,-11,-13,-20,-5
1461662758906506,1,-1,-2,1,-4,-8,-16,-3
1461662758920563,8,16,4,4,-9,-12,2,1
1461662758920563,-21,-66,-41,-10,-2,3,3,1
1461662758927521,1,38,36,21,12,2,5,-3
1461662758927521,4,9,3,-13,-3,-2,3,-1
1461662758942579,-4,-11,-21,20,21,15,14,4
1461662758942579,5,14,46,5,3,3,4,-1
1461662758943522,5,16,1,-2,-4,0,5,3
1461662758943522,13,0,-9,-12,-1,2,1,4
1461662758965595,-12,-27,-8,-30,-25,-10,-11,-10
1461662758965595,2,-1,-19,26,32,11,12,5
1461662758966538,-8,13,8,10,0,8,35,-1
1461662758966538,0,-1,44,13,8,2,-18,-4
1461662758981579,-6,-15,-20,-27,-19,-14,2,1
1461662758981579,1,-7,-27,-12,-5,0,-4,4
1461662758987552,10,13,23,-13,-2,1,-14,-6
1461662758987552,-2,-13,-2,6,-4,-10,-11,-8
1461662759002625,-8,22,27,15,8,-1,12,5
1461662759002625,0,-3,-29,-4,-4,3,13,6
1461662759003563,-13,-8,15,-10,-4,2,-20,-8
1461662759003563,-3,-11,-11,-17,-10,-7,-14,-5
1461662759025591,-3,-4,-16,6,-1,-10,-5,-7
1461662759025591,11,11,10,25,6,-3,-5,3
1461662759025591,20,14,-28,-36,2,3,9,10
1461662759025591,-2,-5,48,24,-2,3,17,8
1461662759041644,-9,31,-11,4,3,6,-5,-9
1461662759041644,-7,6,7,55,20,5,23,3
1461662759047610,-17,-52,-23,-15,4,7,30,7
1461662759047610,-3,-15,-5,-6,1,-3,-47,-18
1461662759064611,11,4,-5,5,0,-4,-14,-3
1461662759064611,4,51,16,-9,-22,-14,-46,-16
1461662759065636,19,-21,2,-4,2,-2,53,12
1461662759065636,-10,36,3,1,-1,14,21,18
1461662759085685,-14,-24,14,-1,5,1,13,-10
1461662759085685,12,9,-14,-20,-18,-17,-50,1
1461662759085685,-2,-7,4,2,-8,-20,-56,-16
1461662759085685,-13,7,-32,-41,-9,-7,7,6
1461662759101647,2,-3,20,47,1,0,18,-3
1461662759101647,-8,-49,-54,-16,11,17,42,12
1461662759106647,1,20,25,3,-11,0,-8,11
1461662759106647,-2,-15,-14,21,1,-2,-10,-21
1461662759122660,-9,-21,-31,-51,-5,7,-9,-9
1461662759122660,10,32,58,-22,-18,-4,-8,-8
1461662759123648,3,-16,-45,45,33,7,-7,-1
1461662759123648,4,44,24,0,4,-1,-3,-5
1461662759145721,4,10,7,-10,-11,-1,-2,4
1461662759145721,5,-10,-24,3,10,9,25,19
1461662759145721,27,73,31,-12,-11,-9,-35,-13
1461662759145721,1,-38,-9,16,3,-6,2,8
1461662759160681,-26,-14,-23,-37,-12,-2,-21,-17
1461662759160681,-9,26,13,36,2,-9,-6,4
1461662759167680,-16,-21,-8,-47,-17,-7,-8,4
1461662759167680,5,-10,-4,42,11,8,42,12
1461662759182691,13,21,17,-23,-5,-11,-46,0
1461662759182691,0,-8,-7,-13,-21,-8,-25,-27
1461662759183692,-4,-7,23,44,25,6,40,4
1461662759183692,7,-5,-18,-15,2,-13,-35,15
1461662759205722,7,-5,42,-23,-20,0,8,-1
1461662759205722,-8,-37,-53,28,12,4,2,-19
1461662759205722,-7,1,-3,0,-3,5,12,-2
1461662759205722,2,-6,9,17,25,27,121,47
1461662759229725,-11,-7,-28,-27,-14,11,-34,6
1461662759229725,6,47,43,52,34,-5,-78,-34
1461662759229725,9,34,-49,-1,-8,-20,-29,-11
1461662759229725,-10,40,-4,-25,-13,3,-7,-13
1461662759250738,-10,-73,-14,57,27,3,34,4
1461662759250738,-3,-8,0,-43,-15,-1,6,5
1461662759250738,-17,6,-22,-32,-24,-8,-6,-7
1461662759250738,22,45,23,29,-10,-11,-24,0
1461662759264786,-2,10,-14,10,12,2,36,12
1461662759264786,-17,-31,21,-32,-5,12,10,-3
1461662759265749,13,-19,13,50,3,-1,16,15
1461662759265749,-1,-6,-11,-67,-31,-2,-16,-5
1461662759280759,3,-19,39,72,49,10,-25,-16
1461662759280759,1,-11,-57,20,16,-2,-3,2
1461662759286803,-15,-5,26,11,-7,-3,-25,-10
1461662759286803,13,-6,-1,-48,-28,-8,57,11
1461662759301833,-22,-11,-35,70,19,12,10,2
1461662759301833,-4,-6,11,-31,1,-2,-36,-32
1461662759309791,14,-48,12,46,26,15,44,17
1461662759309791,-26,-39,31,-61,-22,-12,-61,2
1461662759324807,10,3,41,60,33,4,46,4
1461662759324807,-22,-2,-37,-15,-16,-3,-29,-2
1461662759325791,-17,-1,-48,-33,-11,-5,6,-29
1461662759325791,15,11,5,-47,-22,0,-16,-2
1461662759340802,18,21,0,-15,-8,-17,-40,0
1461662759340802,-29,2,6,34,1,-20,19,11
1461662759346818,27,8,45,20,-2,1,-27,45
1461662759346818,-13,10,-13,42,23,-4,-29,-44
1461662759361828,0,-1,-27,-85,-36,4,52,2
1461662759361828,8,-20,15,19,-20,28,72,6
1461662759369833,-5,0,-8,-70,13,5,-65,-8
1461662759369833,29,13,17,118,48,-23,-76,-6
1461662759384845,-28,4,-63,-55,-24,-23,-9,2
1461662759384845,8,-11,30,16,17,9,81,39
1461662759385832,-12,-13,10,32,-16,-2,24,8
1461662759385832,-11,-11,-17,-19,10,9,-30,-30
1461662759400855,10,0,-46,-20,0,0,26,-20
1461662759400855,18,6,-6,-82,-29,11,-23,1
1461662759406849,11,0,16,18,11,4,14,-21
1461662759406849,-22,3,20,7,-10,-19,-35,-5
1461662759423864,2,-1,13,9,-10,-16,5,13
1461662759423864,15,-3,-33,-57,-14,16,88,48
1461662759429882,-5,-5,43,-5,11,20,6,-4
1461662759429882,-14,1,-44,68,18,-25,-66,-16
1461662759444938,10,-9,7,-123,-42,-10,-7,-4
1461662759444938,6,5,-3,111,51,19,-16,-12
1461662759445895,-8,9,-15,-3,-1,-13,-18,-4
1461662759445895,2,-5,46,-101,-85,-5,67,15
1461662759460895,15,-10,0,-76,9,31,22,27
1461662759460895,-4,-12,-48,81,65,-11,-54,-35
1461662759466947,-11,-5,-12,4,14,6,-1,6
1461662759466947,11,-1,18,-70,-6,18,57,11
1461662759481960,-32,-2,3,114,10,16,19,32
1461662759481960,-5,10,15,-32,-27,-46,-94,-28
1461662759489908,-3,-1,-23,-9,-23,-37,-79,-11
1461662759489908,7,1,-33,28,24,11,41,-5
1461662759506932,29,-2,42,-9,-10,23,53,17
1461662759506932,-31,7,3,-31,-25,-22,-50,-24
1461662759507931,-10,-3,14,1,-4,-9,-13,6
1461662759507931,-2,-2,7,-19,-10,10,72,10
1461662759520928,-5,-3,20,-48,-37,-20,-43,-35
1461662759520928,5,2,-21,44,25,12,45,34
1461662759526945,12,1,-8,-99,-41,-12,-21,-21
1461662759526945,4,-8,-1,-74,-6,16,20,8
1461662759542002,1,7,5,118,85,26,-20,-15
1461662759542002,-9,-3,-50,-128,-65,-22,24,14
1461662759557954,-7,-3,25,66,13,11,-26,-8
1461662759557954,14,-1,-77,22,50,5,-6,3
1461662759565019,-14,-1,49,9,-2,-1,-16,-32
1461662759565019,19,-2,45,-55,-11,16,17,20
1461662759565976,-15,-3,-56,-1,-19,-30,36,15
1461662759565976,-12,1,1,15,-39,-39,-24,12
1461662759580973,30,3,2,23,15,28,5,32
1461662759580973,-2,-1,8,-39,-15,-28,-63,-54
1461662759586977,-4,-4,1,-44,-19,9,23,8
1461662759586977,-7,8,-2,15,-2,-4,-56,-14
1461662759601992,-35,1,-54,38,22,-17,23,-14
1461662759601992,-4,1,10,-44,-14,27,23,-1
1461662759610012,13,0,11,96,58,19,-1,-12
1461662759610012,0,8,12,-71,-21,-5,20,6
1461662759625021,20,3,54,8,8,10,-7,-4
1461662759625021,-26,-2,-43,55,30,-7,3,3
1461662759626002,7,-7,14,-34,-10,2,17,-2
1461662759626002,-15,-2,-31,-63,-36,15,72,9
1461662759649048,-5,1,11,33,36,11,-23,-17
1461662759649048,18,-2,63,22,4,-23,-98,5
1461662759650049,18,-10,-3,-31,17,19,90,28
1461662759650049,11,-8,-16,19,19,27,27,17
1461662759664048,-12,3,-28,-77,-52,-47,-98,-21
1461662759664048,-13,1,-4,3,-23,-43,-8,3
1461662759670052,-3,-12,-15,12,7,4,11,0
1461662759670052,-2,-4,7,-20,-10,-10,-67,-48
1461662759685044,-6,9,13,17,-33,-6,56,8
1461662759685044,-4,2,2,3,-14,3,34,7
1461662759686056,9,-3,6,-57,13,12,-1,12
1461662759686056,8,-3,22,-15,-4,5,0,-6
1461662759701057,-15,3,-25,82,39,4,-18,-3
1461662759701057,9,0,25,-11,23,22,37,5
1461662759707090,-18,1,6,8,-21,-4,-3,-11
1461662759707090,9,-3,5,64,48,13,16,9
1461662759724079,-12,-2,-20,-94,-50,-6,44,-5
1461662759724079,21,5,-2,0,-5,23,-54,-5
1461662759730095,-20,-14,-7,-6,-15,-65,-63,2
1461662759730095,4,-4,21,32,10,-10,-7,-6
1461662759745116,-5,-7,16,-34,-17,-6,-45,-5
1461662759745116,5,-1,-9,9,10,-12,23,-3
1461662759746096,10,-1,4,-15,-2,26,10,2
1461662759746096,-19,-5,2,15,-6,-24,-10,10
1461662759761101,9,-6,-15,-47,-7,15,26,5
1461662759761101,-11,0,-11,2,-2,2,31,-4
1461662759767118,-2,-4,-37,-41,-32,1,-18,-15
1461662759767118,-11,-7,-29,5,6,17,2,-4
1461662759784129,2,-5,-13,81,61,12,0,4
1461662759784129,7,-3,18,-5,5,6,9,6
1461662759789157,-9,-5,0,-6,-13,-21,-2,-5
1461662759789157,6,-9,-7,11,0,5,-9,-4
1461662759805143,-6,-3,-20,-49,-29,-25,-26,-1
1461662759805143,2,-5,8,-11,-10,9,4,0
1461662759812135,22,-2,20,18,11,-21,68,20
1461662759812135,6,-4,-11,9,5,-3,-3,-10
1461662759828146,-39,-4,4,-19,-6,28,-2,-2
1461662759828146,-31,-4,5,2,-6,7,-45,3
1461662759829147,11,-1,-2,-7,2,-10,-39,-12
1461662759829147,-5,-3,1,17,8,15,-4,-2
1461662759844157,34,-4,17,-10,-13,-32,22,22
1461662759844157,-8,-1,-15,-7,-4,16,45,-1
1461662759850161,-2,4,-19,-79,-39,-3,-3,-1
1461662759850161,-6,-4,25,91,49,-6,-15,6
1461662759865187,-1,0,-5,13,10,-4,-13,-9
1461662759865187,7,-5,-22,9,9,1,18,2
1461662759866187,-1,3,5,-18,-15,0,-17,-10
1461662759866187,6,-7,7,-17,-7,-2,-1,-2
1461662759888203,3,0,3,-21,-8,4,-7,-3
1461662759888203,6,-3,4,15,9,-12,5,5
1461662759889206,-8,1,8,14,4,9,-4,-8
1461662759889206,-4,-10,7,-8,-11,-6,-8,0
1461662759904215,0,-6,-12,2,-1,-19,3,17
1461662759904215,-7,-6,-9,-26,-17,-23,-14,-2
1461662759909215,2,53,-4,23,17,42,28,-4
1461662759909215,-4,14,-4,-6,-8,13,-1,-14
1461662759925226,7,17,-1,-10,-10,-7,-39,-18
1461662759925226,-22,-5,-10,-8,-7,-7,-9,1
1461662759926232,1,-20,4,14,3,-19,-14,-3
1461662759926232,23,-14,-1,-1,2,1,11,5
1461662759948298,2,-5,2,-5,-8,-2,6,1
1461662759948298,-12,-17,-3,-26,-14,4,14,-13
1461662759949233,-11,-3,-1,14,19,2,-7,-4
1461662759949233,-5,0,10,-1,-7,-11,-12,2
1461662759963271,6,-7,-3,-14,-13,-6,-8,2
1461662759963271,19,-6,19,49,45,18,13,10
1461662759969274,-5,-16,3,3,1,0,-9,-5
1461662759969274,-8,-20,-20,-13,-10,-7,-3,-6
1461662759985286,6,-5,4,-22,-14,-3,-6,-1
1461662759985286,0,4,-10,-4,-7,-6,3,-5
1461662759986258,12,21,14,6,-3,6,1,3
1461662759986258,-10,-111,-4,-4,0,0,-4,3
1461662760007841,-13,-1,3,9,5,-17,-9,1
1461662760007841,6,-59,-10,-12,-7,-8,-6,-4
1461662760008311,-8,-62,4,17,10,17,9,2
1461662760008311,-27,-23,-4,-5,-8,-32,-30,-2
1461662760023984,-8,-47,-5,0,-1,5,8,-5
1461662760023984,9,23,4,-5,0,30,23,2
1461662760029988,7,-80,-7,4,3,2,0,-3
1461662760029988,2,-19,5,0,-2,-6,1,-1
1461662760045001,0,38,9,0,5,0,-8,-1
1461662760045001,10,85,-25,0,1,-9,-1,-1
1461662760045984,-9,127,5,-2,-9,1,-4,-8
1461662760045984,-2,125,-3,-6,2,2,2,-3
1461662760069000,-1,85,-16,4,0,-2,-3,-2
1461662760069000,0,73,-7,-22,-16,1,5,-2
1461662760070007,2,73,23,19,17,2,-1,-1
1461662760070007,-1,53,-1,1,3,1,1,-1
1461662760084025,3,42,10,6,-3,-1,-2,-2
1461662760084025,-2,-7,2,0,0,-4,1,-2
1461662760090055,-3,-2,-7,-7,-7,-9,-4,-3
1461662760090055,-1,9,-3,-12,-4,3,2,-3
1461662760107029,-4,-18,-12,-3,-4,0,2,0
1461662760107029,-2,-36,9,-5,-5,-7,-2,1
1461662760108040,1,7,4,2,2,2,-1,-1
1461662760108040,-3,-8,-5,-3,-2,2,1,-3
1461662760128055,3,-17,-4,-5,-1,-2,-1,1
1461662760128055,-3,-27,6,1,-2,-5,-1,-3
1461662760129057,1,-1,23,3,-1,2,-1,-2
1461662760129057,-2,1,23,2,-3,1,0,-1
1461662760142054,-6,-27,-39,-7,2,1,0,-2
1461662760142054,0,-18,-13,0,2,0,-1,0
1461662760150123,1,-18,-15,-2,1,3,1,0
1461662760150123,1,0,35,4,-3,-3,0,-2
1461662760165133,2,-3,12,4,4,6,1,2
1461662760165133,-2,0,-8,-3,1,0,-2,-1
1461662760172088,-4,-7,-7,1,-2,-1,-1,-4
1461662760172088,2,2,-2,2,2,-1,-1,0
1461662760181080,1,-3,7,-5,-1,-2,-2,-1
1461662760181080,3,4,6,-10,-9,-6,-2,1
1461662760187143,-2,-3,17,8,0,-4,-5,-3
1461662760187143,-1,-4,-27,-4,5,4,4,0
1461662760202153,-1,1,-5,-4,-2,0,0,1
1461662760202153,2,0,15,27,11,5,2,1
1461662760210099,2,0,-7,-8,-3,-2,-1,1
1461662760210099,2,3,-5,5,-2,1,-1,-1
1461662760225128,-3,-5,7,-7,-6,-7,-2,-3
1461662760225128,-1,-5,6,-4,-4,-3,-1,-4
1461662760232142,3,4,-6,-2,-2,-2,-1,0
1461662760232142,1,1,-8,-2,-2,1,-1,-1
1461662760255133,-1,-3,4,3,0,-2,0,0
1461662760255133,-1,-6,-7,-6,-1,-1,-1,-1
1461662760256135,0,-5,-12,-2,0,-1,-1,-1
1461662760256135,1,-3,-5,-3,-1,-2,-1,-3
1461662760264140,-1,-4,-2,3,0,-2,0,1
1461662760264140,-2,0,-5,-2,-1,-1,-1,-2
1461662760270168,-3,-5,-8,-7,-3,-2,-2,-3
1461662760270168,1,-1,2,-2,-1,-1,-1,-1
1461662760285183,-1,-2,16,9,5,1,0,1
1461662760285183,-8,-18,-27,-5,0,-1,-1,-3
1461662760292173,-3,2,4,-7,-10,-5,-2,-4
1461662760292173,1,-2,0,10,7,5,3,1
1461662760308184,-1,0,5,-10,-2,0,-1,-1
1461662760308184,0,4,8,10,5,0,-1,-1
1461662760308184,5,5,3,15,0,0,1,2
1461662760308184,-6,-10,-4,-13,-4,-6,-6,-6
1461662760323194,0,-3,-5,5,-2,0,-2,0
1461662760323194,-2,0,2,-5,0,2,1,1
1461662760329199,-2,-1,-6,-2,0,-1,-1,0
1461662760329199,2,2,-2,-5,-7,-5,-2,0
1461662760344209,1,4,8,1,-1,0,-1,1
1461662760344209,-7,-17,-15,-11,-6,-5,-3,-3
1461662760352213,-3,-10,-11,0,0,-1,-1,-2
1461662760352213,3,11,19,2,1,0,0,2
1461662760375218,-6,-22,-42,-6,0,-2,-3,-4
1461662760375218,1,8,21,3,0,-1,-1,0
1461662760376219,-2,-7,-11,-9,-4,0,0,-1
1461662760376219,-3,-4,-1,1,0,0,-1,-1
1461662760383235,0,8,10,0,0,-1,0,0
1461662760383235,1,0,4,14,3,-2,-2,-1
1461662760389226,-1,-1,-8,-16,-10,-2,-1,-2
1461662760389226,-1,-1,8,16,7,5,0,0
1461662760404261,1,4,8,-3,1,0,0,1
1461662760404261,-4,-8,-23,0,-2,-2,-3,-2
1461662760412265,2,6,17,11,8,2,1,1
1461662760412265,-3,-18,-35,-8,-5,-3,-2,0
1461662760428254,-1,6,15,-3,-5,-3,-4,-3
1461662760428254,1,3,5,-10,-6,-1,0,1
1461662760428254,0,4,0,-3,-2,0,-2,-2
1461662760428254,-3,-7,-15,-7,-1,-1,0,-2
1461662760443265,-3,-5,-1,1,1,-1,-2,-2
1461662760443265,0,1,7,-1,-2,0,0,-1
1461662760449329,-2,-2,-4,-5,-2,-3,-1,-1
1461662760449329,0,1,-2,-5,-2,-2,0,0
1461662760464296,-2,1,-8,3,0,0,1,-2
1461662760464296,-1,6,1,-4,-1,0,-2,0
1461662760472302,-2,-10,-10,-4,-3,-1,0,-1
1461662760472302,3,3,22,9,3,0,-2,-1
1461662760488300,-3,-9,-14,-3,1,0,-1,-1
1461662760488300,-1,1,-4,-10,-4,-1,1,2
1461662760488300,3,5,7,-2,-3,-2,-2,-2
1461662760488300,-1,-3,-6,4,2,1,0,-1
1461662760504338,0,0,9,8,3,-1,1,0
1461662760504338,-1,3,4,-7,-2,-1,-1,1
1461662760509342,-2,-9,-19,5,0,-1,-3,-2
1461662760509342,4,7,7,-8,-3,1,0,1
1461662760524352,-3,-4,-4,-7,-6,-3,-2,-1
1461662760524352,-3,-2,1,3,3,-1,-2,0
1461662760532344,-2,-1,3,0,0,0,1,-1
1461662760532344,3,2,-6,-4,-4,-2,-2,-2
1461662760548339,-1,2,4,-3,0,1,-1,-1
1461662760548339,0,0,-1,-1,-2,-2,-1,0
1461662760548339,-2,-5,-6,-1,1,1,-1,-2
1461662760548339,-1,-4,-11,-5,-1,-2,-2,-1
1461662760564351,-2,3,15,-1,-2,-3,-1,-1
1461662760564351,-2,0,0,0,0,0,0,-3
1461662760569371,-3,-1,5,4,-3,-1,-1,-1
1461662760569371,-1,-2,-5,-5,0,-1,-2,-3
1461662760584424,-1,-2,-13,-5,-1,-1,-1,-1
1461662760584424,-5,-6,-6,-11,-5,-3,-1,-2
1461662760592430,0,2,4,10,6,2,0,2
1461662760592430,-2,-1,5,-3,-5,-3,0,-3
1461662760607382,-2,-3,-3,-5,-8,-3,-3,-3
1461662760607382,-2,-2,2,-14,-8,-3,-4,-2
1461662760608383,2,1,-4,7,4,1,1,-2
1461662760608383,1,-7,-13,-4,-3,-1,-2,0
1461662760623423,-6,5,23,1,-4,-2,-3,-2
1461662760623423,-3,1,-5,0,1,0,0,-1
1461662760629426,1,2,4,-6,-2,-2,-2,-1
1461662760629426,2,3,7,5,0,-1,-1,0
1461662760644439,-2,-2,-11,-3,3,0,0,0
1461662760644439,1,-2,-3,4,-3,-2,-2,0
1461662760660434,-2,-2,6,1,3,0,1,0
1461662760660434,0,-8,-5,0,-1,-3,-1,-1
1461662760667440,1,0,-1,-3,-6,-2,0,-1
1461662760667440,-1,1,4,7,5,3,1,2
1461662760668424,0,-2,-5,-5,-2,-2,0,-1
1461662760668424,2,2,-5,-14,-9,-3,-1,1
1461662760683435,-3,-6,-6,6,5,-2,-1,-2
1461662760683435,-4,-5,0,0,1,-3,-2,-2
1461662760689475,-3,-6,-8,-5,-3,-2,-1,-3
1461662760689475,1,5,10,5,2,1,0,-2
1461662760704453,-1,-1,-8,-8,-5,-2,0,0
1461662760704453,2,3,1,11,0,-2,-1,0
1461662760712472,1,6,19,-3,-1,-1,0,0
1461662760712472,-3,-9,-25,-11,-6,-2,-1,0
1461662760727478,-5,-7,-6,9,3,0,-1,-1
1461662760727478,-4,-7,-8,-6,-1,-1,-1,-2
1461662760728466,2,3,2,1,-2,-1,-2,0
1461662760728466,-1,1,12,3,3,2,0,-1
1461662760743491,-1,-3,-5,-6,-2,-1,0,0
1461662760743491,-1,-1,-2,-5,1,0,1,-1
1461662760749540,-1,-3,-3,1,-3,-3,-1,-2
1461662760749540,1,2,4,-1,-1,-2,-2,-2
1461662760764552,-2,0,-5,-7,-4,-2,-2,-2
1461662760764552,1,5,5,19,11,3,-1,2
1461662760772497,-3,-6,-9,-1,2,1,-1,-1
1461662760772497,-2,-4,-2,1,-5,0,-2,0
1461662760787568,-5,1,11,6,-2,-1,-1,0
1461662760787568,3,6,-1,-8,-6,-2,0,-1
1461662760788510,-3,-4,-14,-19,-5,-3,-2,-2
1461662760788510,-3,2,13,14,6,1,-1,-3
1461662760811543,2,0,-6,-5,0,0,0,0
1461662760811543,-3,-7,-9,-3,-4,-1,-1,-1
1461662760812526,3,3,-4,-3,-3,0,0,-1
1461662760812526,1,2,0,-9,-6,-4,-2,0
1461662760824547,-2,4,12,-7,-4,-2,-1,-2
1461662760824547,-1,-5,-4,1,-2,0,-1,-3
1461662760832606,-2,-10,-17,-2,-3,-1,-2,-1
1461662760832606,1,9,16,5,2,1,0,0
1461662760847609,0,-1,-6,0,0,0,0,0
1461662760847609,-2,-7,-2,-18,-11,-4,-2,-1
1461662760848553,0,-1,-4,9,3,0,-1,0
1461662760848553,-4,-7,-11,13,6,3,2,1
1461662760864563,-1,8,23,15,4,0,-2,-2
1461662760864563,-3,2,10,-2,-2,-1,0,-1
1461662760869625,1,-1,-8,-10,-4,-2,-2,0
1461662760869625,1,5,10,9,2,-2,-1,-1
1461662760884636,-4,-3,-28,-5,-2,-1,-2,-1
1461662760884636,-2,-11,5,-4,-4,-1,-1,-2
1461662760892612,0,6,6,1,3,2,-1,-1
1461662760892612,0,1,0,-1,2,-1,-3,0
1461662760907593,2,0,-2,12,9,2,1,1
1461662760907593,-2,-2,-11,-2,-2,-1,-2,-2
1461662760908606,-1,-1,2,-4,-5,-2,-1,-2
1461662760908606,-2,-6,-10,-5,-6,-1,-2,-3
1461662760923606,0,-1,2,-3,-1,-1,-1,-2
1461662760923606,2,0,0,-1,-1,0,1,0
1461662760929621,-1,0,11,-2,1,-1,-1,-1
1461662760929621,-1,-1,-4,8,3,-2,-2,-1
1461662760946642,0,-2,-7,-13,-5,-4,-2,0
1461662760946642,-1,3,13,4,3,0,0,0
1461662760952663,-2,-2,-7,3,-1,-1,-1,-3
1461662760952663,-2,-7,-6,-11,-5,-3,-1,-2
1461662760967695,-1,-3,-14,-1,-2,-1,-1,1
1461662760967695,-5,-2,9,-4,-4,-3,-3,-4
1461662760968637,2,2,0,-8,-5,-1,0,1
1461662760968637,-4,-4,0,-9,-6,-2,-2,-3
1461662760983651,-2,1,11,0,0,1,1,-1
1461662760983651,1,0,-2,6,4,-1,-1,0
1461662760989660,-1,-1,-2,1,0,1,-1,0
1461662760989660,1,2,-4,-10,-3,-1,0,0
1461662761004674,0,-6,-1,-5,-4,0,-1,-3
1461662761004674,2,8,10,12,4,0,-2,0
1461662761012698,-3,-7,-11,-14,-9,-4,-1,-3
1461662761012698,-3,-6,-10,-7,-1,-2,-1,-1
1461662761027708,-3,-1,5,6,0,0,1,0
1461662761027708,2,0,-11,-3,-2,-2,-2,-1
1461662761028708,-2,-2,4,16,4,-1,-1,-3
1461662761028708,0,5,15,-1,-1,-1,0,0
1461662761043692,0,1,-12,-2,-1,-1,0,-1
1461662761043692,1,1,-6,0,-4,-3,-2,-1
1461662761049710,-2,-6,7,-11,-3,-1,-1,-1
1461662761049710,-3,-7,-25,3,3,0,0,0
1461662761064720,0,0,10,-5,-3,-2,-1,-1
1461662761064720,1,3,-5,-3,1,3,2,0
1461662761071709,-2,3,7,0,0,-3,-3,-3
1461662761071709,0,4,13,5,-3,-1,-1,-1
1461662761086722,-1,-1,0,2,2,1,1,1
1461662761086722,0,-7,-17,7,1,1,0,1
1461662761094765,-1,-1,-9,-2,-5,-2,-1,-1
1461662761094765,-2,-1,9,-3,-4,-3,-2,-1
1461662761103736,-1,-3,-7,-4,1,-1,0,0
1461662761103736,1,0,5,1,0,-1,-2,-3
1461662761109748,1,2,7,1,-1,-1,0,0
1461662761109748,3,3,-19,-3,0,0,0,1
1461662761124747,-8,-8,14,1,-1,-1,-4,-4
1461662761124747,0,-4,-7,-2,1,2,2,1
1461662761132785,-2,0,-3,0,0,-1,-1,-1
1461662761132785,-2,3,8,-6,-2,-2,1,-3
1461662761146772,-1,1,5,5,1,-1,-1,-2
1461662761146772,-1,1,-1,0,-2,-3,-2,-1
1461662761154801,2,-1,-8,0,3,1,1,2
1461662761154801,0,1,1,11,4,0,-1,0
1461662761163776,-1,0,1,-11,-7,-4,-2,-1
1461662761163776,-2,-3,-16,-9,-3,-3,0,1
1461662761169808,2,-1,6,20,6,2,0,0
1461662761169808,1,-3,3,1,0,-1,-2,0
1461662761184790,-2,-1,-10,-5,-2,-1,-1,0
1461662761184790,0,3,8,-8,-5,-3,-2,-1
1461662761200801,0,-4,6,-1,-1,0,0,-1
1461662761200801,-5,-2,-2,9,1,-3,-3,-3
1461662761206806,-3,-8,-12,5,1,-1,-1,-2
1461662761206806,1,-1,2,-11,-3,-1,2,0
1461662761214811,0,1,1,4,2,-1,0,-1
1461662761214811,0,-4,-7,-6,-4,1,-3,-2
1461662761223829,2,4,-3,10,5,1,1,0
1461662761223829,1,-1,12,-1,-1,-2,-2,-2
1461662761229880,-5,-8,-15,-4,-2,-1,-2,-2
1461662761229880,2,2,3,-7,1,0,3,1
1461662761244890,1,0,-2,1,-3,0,-2,0
1461662761244890,1,-1,-9,-5,-1,-1,0,0
1461662761251850,-3,2,8,-4,-4,-4,-3,-1
1461662761251850,-3,-3,-8,-5,-4,-1,-1,-1
1461662761266936,0,2,-4,-20,-5,-2,-1,-1
1461662761266936,0,-2,16,40,8,0,0,0
1461662761274957,0,-1,-5,-4,-3,-2,0,-1
1461662761274957,-4,-8,-11,-4,-2,-2,-1,-2
1461662761290014,0,4,17,-1,-5,-3,-2,-1
1461662761290014,-1,3,10,9,3,0,-2,-4
1461662761290960,4,-1,-16,-7,1,-1,1,1
1461662761290960,-2,-4,7,4,1,0,-1,0
1461662761304981,-5,-2,6,-11,-9,-2,-2,-2
1461662761304981,0,0,-15,3,4,2,0,-2
1461662761311983,-6,-4,1,4,-1,0,-1,-3
1461662761311983,0,-2,0,0,-1,1,2,2
1461662761326982,4,0,-7,-1,2,1,1,2
1461662761326982,-3,2,16,0,0,0,-2,-3
1461662761335001,1,0,7,-1,-3,-1,-3,-2
1461662761335001,-3,-2,-9,-5,-4,-2,3,-1
1461662761350011,-4,-2,2,8,0,-3,-9,-4
1461662761350011,-3,-7,-17,-12,-7,-3,0,-4
1461662761350999,4,3,1,-22,-5,-3,-2,-1
1461662761350999,-3,0,12,21,4,0,1,0
1461662761365021,-2,0,-4,3,5,2,2,1
1461662761365021,1,-2,-10,-6,-4,0,0,2
1461662761372013,-1,0,-3,-5,-7,-1,-1,0
1461662761372013,-3,-2,1,-29,-7,-3,-4,-1
1461662761387036,-1,-3,-4,13,4,1,1,-1
1461662761387036,1,-1,3,-2,1,-3,-2,0
1461662761395070,-2,-1,5,14,2,-1,0,-2
1461662761395070,-2,-1,-10,-18,-5,-1,-3,-2
1461662761410052,-4,-8,-20,1,-2,-2,0,-2
1461662761410052,-1,-1,-4,-8,-4,0,9,3
1461662761411040,1,3,-2,-7,-6,-2,-5,1
1461662761411040,-4,-1,2,8,-2,0,3,-7
1461662761425051,1,4,11,8,4,1,-10,-2
1461662761425051,1,0,-3,-2,0,-2,0,0
1461662761432118,3,0,1,3,1,1,-2,-2
1461662761432118,0,2,-6,-2,-2,0,-1,2
1461662761447129,-3,-5,-2,-9,-9,-4,2,-2
1461662761447129,1,1,2,-5,-2,-1,1,0
1461662761455073,-1,-1,-1,1,-2,-2,0,-2
1461662761455073,0,-1,-3,1,2,0,-1,-1
1461662761478092,-3,-1,3,-4,-2,-1,2,-1
1461662761478092,1,0,-8,3,1,-1,-2,1
1461662761479092,1,-2,4,8,4,1,4,0
1461662761479092,0,6,12,-7,-3,-2,-5,-1
1461662761485160,3,7,38,22,8,1,0,2
1461662761485160,-2,-17,-48,-18,-6,-2,-3,-3
1461662761492161,-7,-14,-12,-1,0,0,0,-2
1461662761492161,-3,-4,-4,3,-1,-2,-2,-2
1461662761507127,1,4,8,-4,-3,-1,-1,-1
1461662761507127,1,4,14,4,-1,-1,-4,0
1461662761523138,1,2,-4,-15,-5,-2,5,2
1461662761523138,-4,-3,3,20,4,0,-6,0
1461662761530143,-2,-2,-12,-8,-5,-3,-2,-4
1461662761530143,-2,-2,12,6,1,-3,-2,-1
1461662761531144,-1,0,-10,-3,2,-2,0,-1
1461662761531144,-1,3,9,-3,-1,-1,-3,-2
1461662761545135,-1,-1,-7,-2,-6,-1,1,1
1461662761545135,1,2,6,9,4,1,2,2
1461662761552153,0,-1,2,3,0,-2,-6,-1
1461662761552153,1,6,-4,0,0,-3,2,-2
1461662761567170,-3,0,4,0,-2,-3,-2,-1
1461662761567170,-6,-12,-12,-7,-2,-1,-1,-6
1461662761574168,1,1,-5,1,-3,-1,2,1
1461662761574168,-8,-5,2,-13,-7,-2,0,-2
1461662761590225,1,2,-5,15,6,2,2,2
1461662761590225,3,6,13,-2,-1,-2,-1,1
1461662761591170,0,1,12,9,6,2,0,1
1461662761591170,0,-6,-19,-16,-7,-2,-4,0
1461662761604236,-3,-2,4,6,1,-1,0,1
1461662761604236,-2,2,7,1,-1,1,-4,-2
1461662761612195,3,0,-4,-2,0,1,-2,-4
1461662761612195,3,5,8,5,1,0,2,2
1461662761627194,-2,-6,-12,-19,-8,-4,-3,2
1461662761627194,-2,1,6,8,1,-2,-9,-6
1461662761635216,-5,-1,-6,-5,-4,-5,-5,-6
1461662761635216,1,-1,-3,11,7,4,8,2
1461662761650269,0,0,-8,-9,2,2,7,0
1461662761650269,3,6,-1,1,-6,0,2,2
1461662761651212,1,-11,0,-5,1,-1,2,3
1461662761651212,-6,-2,9,11,0,-3,-5,-1
1461662761665223,1,-2,-10,-5,0,-1,-3,0
1461662761665223,1,2,2,-27,-14,-5,-13,-8
1461662761672228,-4,-2,-12,3,-1,0,-4,-4
1461662761672228,-4,-4,-11,9,4,-1,-7,-3
1461662761687265,0,2,9,3,0,-1,4,0
1461662761687265,1,-4,-14,-4,-8,-2,18,7
1461662761695272,-1,-2,-8,-20,-13,-4,-9,0
1461662761695272,0,1,16,17,12,4,-7,-6
1461662761710270,-3,-1,-5,-8,-3,0,-6,-3
1461662761710270,3,7,31,13,9,0,-3,-2
1461662761711256,-2,-1,-8,12,2,-2,8,1
1461662761711256,0,-3,-12,-15,-13,-4,9,3
1461662761724262,1,-4,-9,-12,0,0,11,1
1461662761724262,-19,-14,-7,2,6,5,2,2
1461662761732270,-2,-2,3,-4,1,2,-14,-6
1461662761732270,2,0,-11,-11,-6,-10,-14,-5
1461662761747281,4,5,3,-2,-6,-2,8,1
1461662761747281,2,-1,-1,12,2,3,-3,0
1461662761754286,0,14,9,9,1,-3,-21,-13
1461662761754286,-6,-16,-6,-5,4,-1,-8,-5
1461662761770295,-4,0,5,15,4,-2,7,3
1461662761770295,-3,-3,-1,-2,-1,-1,10,6
1461662761771295,0,2,1,-9,-2,4,13,5
1461662761771295,11,11,9,11,0,4,16,5
1461662761784364,8,5,-13,-40,-5,-1,-19,-6
1461662761784364,14,14,26,60,16,4,4,2
1461662761792369,-12,-10,-10,-7,-3,-1,16,1
1461662761792369,-13,-4,0,-9,-13,-4,-6,-3
1461662761807336,-3,-18,-27,9,7,3,-6,-1
1461662761807336,10,6,-5,-16,-10,-11,-34,-4
1461662761814341,1,-3,13,14,7,-2,-16,-6
1461662761814341,-2,6,-4,-10,-4,-1,16,-4
1461662761830337,-12,-9,10,8,-5,-1,4,-2
1461662761830337,3,-1,-19,-34,-16,-2,11,-1
1461662761831338,-1,-14,1,19,6,1,9,11
1461662761831338,1,12,-2,-18,-4,-2,-6,5
1461662761846358,1,-5,-11,-10,-11,-3,13,-2
1461662761846358,-6,-3,-1,-8,-4,-3,-20,-8
1461662761852411,1,10,-13,-30,-6,-3,12,-4
1461662761852411,-4,-15,8,42,20,6,-3,3
1461662761867429,2,23,13,26,8,5,9,8
1461662761867429,8,-2,-19,-54,-28,-13,-8,-7
1461662761874368,-25,-6,5,25,5,-4,-38,-14
1461662761874368,4,2,-18,-20,-1,2,5,-3
1461662761890440,-9,-11,-4,-34,-9,-7,8,-6
1461662761890440,11,-12,3,48,24,9,14,4
1461662761891396,-2,-10,0,-13,-8,-2,5,9
1461662761891396,-14,-4,2,7,5,5,23,0
1461662761914397,11,0,6,11,1,2,-19,7
1461662761914397,-3,10,-9,-28,-8,-1,-24,-19
1461662761915413,11,-2,-1,-12,-9,-5,-2,-7
1461662761915413,2,-6,8,12,1,2,-3,2
1461662761927422,7,19,-1,-43,-19,-8,-18,-5
1461662761927422,-16,-5,-7,7,-3,-15,23,10
1461662761934426,-7,-11,0,-41,-20,-7,-16,3
1461662761934426,3,-6,-19,75,44,9,27,9
1461662761950435,27,-3,22,42,18,12,-7,16
1461662761950435,2,16,-22,-92,-39,-4,-6,-20
1461662761951427,-16,-26,16,56,9,1,11,-1
1461662761951427,6,38,-8,-1,6,-3,-32,-19
1461662761966442,-35,-57,-7,-28,-32,-18,6,-19
1461662761966442,8,-1,0,43,42,27,49,26
1461662761972445,12,44,4,-4,9,23,92,22
1461662761972445,5,-16,5,19,0,-9,-86,5
1461662761987480,15,52,25,69,31,-12,-67,-41
1461662761987480,-15,-55,1,-25,-16,-26,-54,-11
1461662761994454,4,10,-1,-26,-10,1,1,-6
1461662761994454,13,-5,-9,-41,-19,10,30,4
1461662762010483,-6,4,-15,-38,-5,6,48,20
1461662762010483,-16,-1,0,17,-10,-8,35,6
1461662762011484,10,17,5,0,-2,-7,-28,10
1461662762011484,-21,-27,-1,11,-4,-8,25,5
1461662762026475,-3,-4,-14,-59,-22,-2,-5,-11
1461662762026475,-9,16,-4,-22,-2,-1,-79,-36
1461662762032482,-10,-5,33,116,59,-3,-41,-15
1461662762032482,5,-3,-17,-128,-46,-17,-1,-2
1461662762047493,8,56,-6,51,32,12,6,4
1461662762047493,19,-8,25,42,-2,6,52,24
1461662762054498,-11,-16,5,13,20,18,26,1
1461662762054498,-13,-13,-26,22,24,7,-3,-9
1461662762069522,11,20,0,-61,-21,1,61,8
1461662762069522,-10,4,-14,-87,-22,8,-13,5
1461662762077513,36,42,-3,-3,-23,-19,-29,-4
1461662762077513,-23,31,0,79,46,1,-36,0
1461662762086531,-2,15,14,36,20,-8,-57,-11
1461662762086531,-18,67,11,14,4,-1,18,-1
1461662762092583,15,14,-36,-117,-43,10,50,2
1461662762092583,-8,-19,3,16,-15,-5,22,17
1461662762108534,-6,-20,-12,3,-14,-24,-41,-4
1461662762108534,0,-40,-13,5,10,5,16,25
1461662762114539,-1,30,3,4,13,-5,-51,-29
1461662762114539,5,-77,40,-51,-38,-22,-23,-30
1461662762129551,-12,-116,-10,38,2,10,25,5
1461662762129551,35,-44,-13,-14,15,5,18,8
1461662762137565,-22,-67,44,-5,-1,13,24,17
1461662762137565,14,27,-51,4,17,24,84,12
1461662762154599,-8,25,1,-43,-13,8,-26,6
1461662762154599,5,12,-43,-70,-41,-43,-78,-24
1461662762155569,33,-5,35,98,40,-3,-61,-5
1461662762155569,-45,34,-19,2,12,-13,-37,-18
1461662762167605,17,1,1,-36,-8,15,126,59
1461662762167605,-14,10,-9,73,19,29,-4,9
1461662762174610,2,1,-12,-39,-29,-41,-112,-46
1461662762174610,9,10,-2,-84,-58,-24,18,-15
1461662762191610,-32,1,3,99,24,3,-35,-29
1461662762191610,17,21,20,11,19,3,-7,10
1461662762197664,-11,-14,-52,-62,-23,-7,43,24
1461662762197664,22,-7,18,29,16,20,8,14
1461662762206608,0,6,16,-1,-18,-18,-6,7
1461662762206608,10,6,53,66,26,17,28,-6
1461662762220616,-23,-25,-45,-16,12,15,69,17
1461662762220616,-5,0,65,-47,-27,3,-9,-25
1461662762227622,-1,9,-17,-43,-2,-7,-51,-4
1461662762227622,10,2,-7,74,39,8,42,8
1461662762234626,-6,-17,41,-23,-17,18,15,-16
1461662762234626,7,4,11,-12,-12,-3,-83,-4
1461662762249693,2,9,-17,6,-1,-37,-63,-18
1461662762249693,-8,3,15,12,-4,-6,42,3
1461662762257639,2,-10,-23,-51,4,39,8,27
1461662762257639,24,0,11,28,5,-7,-4,-12
1461662762272770,1,-8,33,14,-7,-22,-52,16
1461662762272770,-27,7,-20,-38,-30,-28,-37,-15
1461662762273742,-10,-8,-4,-82,-30,4,93,7
1461662762273742,17,-2,69,-51,-50,22,39,21
1461662762287781,3,-4,-52,92,102,18,-86,-18
1461662762287781,-27,13,-21,-82,-43,-42,-33,-16
1461662762294785,0,-4,23,108,18,-15,-63,-1
1461662762294785,-9,3,30,25,45,26,50,0
1461662762310786,-14,-3,-16,42,-9,24,73,-16
1461662762310786,1,12,-33,-42,-19,0,-31,-2
1461662762316791,-22,-6,18,3,-29,-17,0,-23
1461662762316791,9,0,-68,64,53,18,81,32
1461662762333800,10,3,35,-17,-12,4,17,17
1461662762333800,23,3,22,16,21,-14,-67,-7
1461662762334784,-40,-1,-18,-45,-32,-17,-21,-40
1461662762334784,-22,-5,-23,-35,-14,-16,-39,5
1461662762346804,-13,0,30,-31,3,4,-14,-11
1461662762346804,28,-2,-16,-37,-32,15,117,35
1461662762354799,49,-1,-56,-65,-9,-3,-112,1
1461662762354799,-20,-4,8,35,19,-49,-90,-4
1461662762369826,-2,1,-9,30,8,6,-1,-13
1461662762369826,15,-1,27,-82,-54,-10,3,-23
1461662762376815,-14,-6,67,115,86,45,94,20
1461662762376815,-16,0,-59,-54,-12,12,22,-7
1461662762392824,-26,2,33,13,-1,-2,32,17
1461662762392824,48,2,-21,57,45,24,-3,-14
1461662762393825,-1,-2,-4,-68,-27,-10,-8,-3
1461662762393825,10,0,-10,40,-9,-9,-8,-14
1461662762406835,-12,-2,14,-33,-11,4,32,3
1461662762406835,-30,-1,4,18,21,17,-68,-2
1461662762414880,23,3,-6,7,-9,-27,30,35
1461662762414880,-7,9,8,-4,-5,-17,-97,-31
1461662762429851,45,-5,-36,-41,-19,-8,24,19
1461662762429851,-17,-6,21,34,24,22,-1,30
1461662762436858,-61,4,-37,-10,-21,-54,-71,-43
1461662762436858,-9,-7,-36,-92,-59,-30,-7,0
1461662762452867,79,3,5,24,27,27,37,-7
1461662762452867,-62,2,-40,-46,-16,6,15,-15
1461662762453868,1,-2,35,94,32,19,31,4
1461662762453868,-1,3,9,-36,0,10,14,-2
1461662762466877,-6,-3,-5,21,-12,-3,-7,4
1461662762466877,25,-1,41,34,9,-3,13,7
1461662762474884,23,-2,-12,-50,-6,4,-13,9
1461662762474884,13,2,39,58,25,13,63,38
1461662762489894,-16,0,-47,-65,-23,-8,-38,-16
1461662762489894,-37,-3,17,-3,-9,-24,-60,-51
1461662762496900,30,2,-9,2,-6,12,16,32
1461662762496900,-36,-1,3,14,-3,-70,4,8
1461662762512910,-12,-1,0,-30,-14,35,-22,6
1461662762512910,-16,1,-13,14,1,-16,-57,-22
1461662762513911,-10,-4,-6,12,6,-7,-25,-36
1461662762513911,9,-3,-8,11,14,48,29,3
1461662762528968,17,4,-5,-26,-19,-31,9,-6
1461662762528968,-23,1,-12,-43,-17,-2,54,10
1461662762535016,6,-3,19,48,11,4,8,1
1461662762535016,20,7,12,-37,6,-4,-12,9
1461662762557988,1,-4,11,15,14,1,16,0
1461662762557988,11,-2,-17,-19,-16,2,1,4
1461662762558989,6,2,16,46,32,2,12,14
1461662762558989,-31,-1,-3,-2,-12,3,-20,-19
1461662762572984,-10,-3,8,-5,-6,-4,-8,-11
1461662762572984,15,-1,-20,-21,-5,-4,8,6
1461662762574000,36,2,-9,-43,-26,-13,-4,18
1461662762574000,-15,7,0,32,8,-7,-14,-5
1461662762588999,-34,-14,-6,-19,2,13,47,-12
1461662762588999,3,-5,17,29,16,26,47,26
1461662762595059,-26,-2,-23,-6,-6,-45,-70,-28
1461662762595059,41,2,4,9,4,18,1,-2
1461662762618074,-8,3,-8,-12,-5,5,15,5
1461662762618074,-5,12,0,18,8,1,0,-2
1461662762619032,-1,7,3,-11,-5,36,24,-2
1461662762619032,7,-1,-4,10,0,-12,-12,-3
1461662762633041,0,-6,1,-73,-39,-33,-16,2
1461662762633041,4,-2,27,98,57,19,19,7
1461662762634029,5,1,-5,-10,-4,-5,0,0
1461662762634029,-4,-8,-7,5,2,-7,-9,-3
1461662762647095,-3,-2,11,13,5,6,2,-4
1461662762647095,13,2,6,-16,-10,-9,-12,-5
1461662762655050,-14,9,-6,-12,-12,-8,4,10
1461662762655050,-7,3,2,-1,0,15,7,-1
1461662762670112,10,58,-4,5,1,-4,-8,-3
1461662762670112,4,26,2,-16,-9,-5,-11,-3
1461662762677074,2,39,-2,3,3,1,10,4
1461662762677074,-7,-104,1,-3,-5,-5,1,12
1461662762693131,-19,-128,-9,9,1,9,-7,2
1461662762693131,-12,-92,-7,-2,-9,-18,-15,-9
1461662762694105,-13,-17,-4,0,4,20,15,-4
1461662762694105,6,-4,1,-9,-5,7,-10,-2
1461662762707095,8,24,-3,9,3,-12,-13,-6
1461662762707095,-4,36,4,-4,-7,2,5,-6
1461662762715085,11,58,-17,-11,-1,-3,-2,-7
1461662762715085,0,63,-17,-44,-21,-2,-1,-2
1461662762730125,0,32,34,88,35,-2,-2,3
1461662762730125,6,18,3,2,16,12,4,3
1461662762737130,-7,31,2,3,0,-6,-3,-2
1461662762737130,0,7,-4,13,4,0,-4,-3
1461662762753129,-7,-8,-16,-27,-15,-2,-8,0
1461662762753129,7,-101,-4,-11,-13,-10,-6,2
1461662762754112,-5,-75,4,9,4,0,-1,4
1461662762754112,-1,17,3,-4,-5,4,-1,1
1461662762767138,10,44,8,-7,-6,-5,-9,6
1461662762767138,-8,64,-19,-2,2,6,2,3
1461662762775133,-6,60,-4,-13,-5,-3,1,3
1461662762775133,4,39,4,9,0,-12,0,-1
1461662762790138,2,38,-8,-8,-4,5,-2,-2
1461662762790138,2,25,8,7,2,-2,3,-2
1461662762797163,-3,0,5,0,-2,2,7,-5
1461662762797163,2,9,-13,2,1,6,3,-3
1461662762813179,2,-12,-4,7,4,1,-2,-5
1461662762813179,-2,-15,-10,-12,-3,-6,-2,-5
1461662762814156,0,-10,-6,-3,-4,-4,1,-3
1461662762814156,4,6,19,11,9,5,-1,-4
1461662762827181,-5,-24,-12,-13,-2,-5,-3,-4
1461662762827181,-1,-14,-9,-17,-11,-4,-2,-5
1461662762835171,1,3,-7,-5,3,-1,1,-2
1461662762835171,0,-4,3,0,-3,-3,2,-1
1461662762858201,0,-6,3,5,5,3,3,-1
1461662762858201,5,2,-14,0,-2,-3,-2,-1
1461662762858201,-7,-4,14,11,-1,-1,0,-2
1461662762858201,-4,-2,-10,-4,-2,3,1,-2
1461662762873197,2,0,-1,-12,-7,-4,0,0
1461662762873197,0,7,9,4,0,-11,-5,3
1461662762873197,3,2,-7,-2,-2,0,-2,1
1461662762873197,-10,-22,-7,1,3,24,9,0
1461662762887246,0,-4,-4,-4,-3,-4,-1,-2
1461662762887246,2,-2,8,7,4,3,0,1
1461662762894263,-3,-4,-3,-2,-2,-14,-1,1
1461662762894263,3,3,7,2,-2,4,-1,-1
1461662762910224,-1,-5,-7,-6,-2,0,-3,-2
1461662762910224,-4,-7,-9,-4,-1,0,-1,-1
1461662762917230,2,-3,6,-5,-3,-1,-2,-4
1461662762917230,3,5,9,0,7,-2,-1,-1
1461662762933240,-3,-11,-19,-2,-3,-3,1,-1
1461662762933240,-1,-8,-8,-13,-8,-5,-3,-5
1461662762933240,2,2,1,17,4,5,1,2
1461662762933240,-6,3,2,-19,-6,-8,-3,-1
1461662762947265,0,6,17,26,11,2,0,0
1461662762947265,0,-1,-6,-2,-2,-3,0,0
1461662762954255,-2,-11,-5,-10,-7,4,2,-1
1461662762954255,0,-3,-6,-6,-2,-4,-2,-1
1461662762969264,2,1,0,-7,-4,-2,-4,0
1461662762969264,-1,-3,7,3,-2,-1,-1,-3
1461662762977271,-3,-1,9,1,3,3,1,-1
1461662762977271,-2,-1,2,7,4,-3,-2,-1
1461662763000288,0,-1,2,-7,-4,-3,-2,-1
1461662763000288,0,-9,-13,5,4,2,1,2
1461662763001288,-2,-8,-10,-9,-2,-3,-1,-2
1461662763001288,2,-1,3,5,-2,2,-1,-2
1461662763008305,-1,-5,3,-2,0,-2,-1,-2
1461662763008305,1,8,6,6,4,0,0,1
1461662763014355,-1,-6,-15,-18,-7,-2,-2,-1
1461662763014355,1,0,8,13,2,-2,-3,-1
1461662763038404,0,-3,-2,-9,-4,-2,-2,-2
1461662763038404,0,0,4,-2,1,1,-1,0
1461662763038404,-2,0,-1,-14,-8,0,-2,0
1461662763038404,3,6,-6,10,3,0,-1,0
1461662763052477,-6,-10,9,22,8,0,-1,-1
1461662763052477,-1,3,9,5,4,0,-1,0
1461662763060449,-6,-4,-4,-4,-1,1,-2,-2
1461662763060449,-1,-3,-16,-13,-7,-4,-3,-1
1461662763067455,-1,-4,-13,-15,-10,-3,-4,-1
1461662763067455,-1,-5,-7,-3,-4,-1,-1,-2
1461662763074459,-1,0,2,2,3,0,2,1
1461662763074459,2,2,2,5,-2,-3,-1,-1
1461662763089444,-2,-2,4,-6,-4,0,-1,-1
1461662763089444,-1,-4,1,2,-1,1,-2,0
1461662763097448,5,11,14,0,1,-1,0,1
1461662763097448,-6,-21,-31,0,-2,-3,0,-5
1461662763113459,2,0,-4,-4,-1,-2,-1,-2
1461662763113459,-1,0,4,-4,0,-1,0,-1
1461662763120464,-1,5,13,8,1,0,-3,-1
1461662763120464,0,0,-3,-3,-4,-4,-3,1
1461662763127468,-1,-1,1,-5,-5,-3,-1,-2
1461662763127468,-1,2,11,4,3,0,-1,-2
1461662763134473,-1,-3,1,0,0,1,0,-1
1461662763134473,-5,-7,-4,1,1,0,-1,-1
1461662763151484,0,1,-11,-9,-7,-3,0,-1
1461662763151484,0,2,7,0,1,-1,-2,0
1461662763157488,-4,-5,-9,3,0,-1,-2,-3
1461662763157488,0,4,13,-6,-3,-2,-1,-1
1461662763172498,-1,0,-8,-4,1,0,-2,0
1461662763172498,1,14,13,1,-2,-3,-4,-1
1461662763180505,-4,-19,-20,-1,-1,0,-1,-2
1461662763180505,-4,-4,1,-2,-2,-2,-2,-3
1461662763187510,-1,-1,2,0,-1,-1,-2,-3
1461662763187510,-2,-5,-4,-3,-3,-3,-1,-2
1461662763194515,2,7,0,-3,-2,-2,-4,-1
1461662763194515,-1,1,6,-4,-2,-3,-1,0
1461662763209525,-2,-5,-2,3,1,0,-1,-1
1461662763209525,-4,-5,-10,-15,-13,-4,-3,-5
1461662763217531,-1,1,1,6,1,-1,0,1
1461662763217531,0,3,2,-3,-4,-2,0,0
1461662763232543,-4,-4,-14,-8,4,4,0,-1
1461662763232543,-1,-7,3,6,1,0,1,-1
1461662763240546,0,-3,-4,0,0,-1,-1,-1
1461662763240546,-1,-2,0,1,-2,-3,-2,0
1461662763255557,-1,7,10,-5,-6,-4,-3,0
1461662763255557,-3,-8,-13,-6,-4,-3,-1,-2
1461662763256558,-3,-4,-13,-2,-1,1,-2,-2
1461662763256558,0,5,11,-5,-5,-2,-3,-2
1461662763269641,1,5,7,4,1,1,2,0
1461662763269641,-1,-6,-13,-2,3,2,0,-1
1461662763277618,0,0,5,-2,-2,-1,-3,-2
1461662763277618,0,-3,-8,2,0,-1,-1,-1
1461662763292675,0,2,3,1,-2,-1,-1,-1
1461662763292675,0,-1,-1,1,-2,-3,-2,-1
1461662763300681,1,5,2,-2,0,-1,-1,0
1461662763300681,-7,-18,-23,0,2,-1,-3,0
1461662763315653,2,3,8,5,-1,-1,-1,-1
1461662763315653,-2,2,-3,-3,-5,-3,-1,-2
1461662763316650,1,2,8,12,3,1,1,2
1461662763316650,1,4,9,2,4,1,-1,-1
1461662763329672,0,-6,-12,-5,2,-2,-1,1
1461662763329672,-1,-6,-8,5,5,0,1,0
1461662763337678,-4,0,1,-2,-6,-4,0,-1
1461662763337678,1,4,4,4,1,0,-1,1
1461662763352661,-1,-1,1,-3,-1,-1,0,-2
1461662763352661,2,3,-1,-6,-3,-1,-1,-1
1461662763360667,-3,-4,-4,-5,-3,-2,-2,-3
1461662763360667,-1,-1,2,-3,-2,1,0,0
1461662763375692,-3,-6,-9,-5,-6,-2,-3,-2
1461662763375692,2,0,2,-2,-3,-1,-1,-2
1461662763376678,-1,-1,-6,-3,2,0,-2,1
1461662763376678,-1,1,7,5,-3,-2,0,-2
1461662763389685,-3,-1,-1,-7,-2,0,1,0
1461662763389685,-1,2,8,14,7,0,0,0
1461662763396690,0,0,-8,-1,2,0,-2,0
1461662763396690,-1,3,11,2,1,1,0,0
1461662763412701,1,-3,-7,4,-2,-3,-1,0
1461662763412701,0,-4,-5,-21,-8,-1,-1,-3
1461662763420707,-2,0,2,4,-3,-2,-2,-4
1461662763420707,1,1,-3,1,2,-2,-1,-1
1461662763435718,-2,2,4,2,-1,-2,0,0
1461662763435718,-1,-1,2,-3,-2,-1,0,0
1461662763436719,0,0,-1,-3,0,0,0,-2
1461662763436719,-2,0,-4,-3,-5,-1,-2,-2
1461662763449786,-4,-7,-3,1,1,-1,-2,-2
1461662763449786,-2,-2,-4,3,3,0,-1,-1
1461662763457733,-3,-7,-3,-1,1,-1,0,-2
1461662763457733,0,1,0,2,1,-2,1,-1
1461662763471743,0,0,-3,-8,-3,-1,-2,0
1461662763471743,2,2,1,-8,-5,-2,-1,-1
1461662763479788,3,5,7,20,8,0,1,0
1461662763479788,-4,-6,-8,-3,1,0,-2,-1
1461662763494799,2,10,13,7,2,1,0,1
1461662763494799,-5,-7,-9,-7,-3,-2,-1,1
1461662763502868,-6,-3,4,-5,-4,0,-2,-3
1461662763502868,-1,-2,-3,-9,-3,0,0,-1
1461662763509846,-3,-1,-1,2,-2,0,-2,-3
1461662763509846,0,4,-3,0,2,0,1,0
1461662763525846,0,-2,3,-3,-6,-2,-1,-1
1461662763525846,-3,-2,-5,-2,-2,-3,-2,-1
1461662763531906,0,1,4,1,-2,-2,-2,-2
1461662763531906,1,0,0,-1,-3,-3,-2,-2
1461662763539911,-3,-1,-1,-2,-3,-2,-1,-1
1461662763539911,-4,-5,-7,-1,1,1,-1,-3
1461662763556866,-1,1,6,0,1,-1,-1,-2
1461662763556866,-2,-5,1,1,-3,-2,-3,-1
1461662763557867,-2,-2,-6,-8,-2,-1,-2,-3
1461662763557867,0,4,-2,1,1,-1,-2,0
1461662763569935,-1,-2,5,8,4,1,-1,-1
1461662763569935,0,-2,-6,6,3,0,0,1
1461662763578941,-4,-1,8,-8,-5,-3,-2,-3
1461662763578941,-1,-2,-4,6,-2,-1,-1,0
1461662763591950,0,0,-2,-4,-2,-3,-3,-2
1461662763591950,-2,-4,3,1,-1,0,0,-1
1461662763599955,1,-3,-7,-6,-2,0,-2,-1
1461662763599955,-2,-1,-1,-9,-6,-5,-1,-1
1461662763614927,-2,-7,-7,2,0,0,0,0
1461662763614927,2,2,2,3,-3,-1,-3,0
1461662763615908,-2,-2,-2,-7,-3,-2,1,0
1461662763615908,-4,-3,-3,-11,-3,0,-1,0
1461662763629930,-1,0,2,2,0,0,-1,0
1461662763629930,0,3,4,3,0,-1,1,0
1461662763636982,3,0,1,-6,0,0,0,1
1461662763636982,-6,-6,-6,-3,-3,-3,-1,-2
1461662763651993,-2,-1,-1,2,1,1,0,-1
1461662763651993,-1,0,-1,-3,1,-1,-1,-2
1461662763659951,-1,-2,-2,2,-2,-2,-1,-1
1461662763659951,0,-10,-15,-3,2,0,0,0
1461662763674962,-2,-3,-3,-9,-3,-1,-1,-1
1461662763674962,1,8,25,9,2,0,0,-3
1461662763675950,0,3,1,6,3,-2,0,1
1461662763675950,0,1,5,-2,-3,-1,-2,0
1461662763690018,1,-5,-6,0,0,0,1,0
1461662763690018,3,-6,-14,-9,-4,-1,0,-1
1461662763696965,-5,-7,-9,-4,-4,-2,-1,-3
1461662763696965,-3,3,5,5,1,-1,-2,-1
1461662763711988,2,0,-5,-10,-4,-1,1,1
1461662763711988,1,3,4,3,-2,-1,-1,1
1461662763720039,-6,-4,5,0,0,1,-1,0
1461662763720039,0,1,-2,4,0,1,0,-1
1461662763735051,-1,1,-9,-12,-3,-3,-3,0
1461662763735051,-4,0,3,-4,-3,-1,-1,-2
1461662763735995,0,-3,-7,4,-1,-1,-2,-1
1461662763735995,4,6,3,-6,1,-2,-1,0
1461662763750061,-2,-5,9,15,4,-1,0,-1
1461662763750061,-2,-1,1,-6,1,0,-1,-2
1461662763757020,-1,0,-6,4,-1,-1,-1,-2
1461662763757020,-4,0,1,-13,-8,-4,-2,-2
1461662763772021,2,1,-5,-1,-2,0,-1,0
1461662763772021,0,-2,-6,4,1,0,-1,0
1461662763780083,-1,0,4,-5,-2,-3,-2,-2
1461662763780083,0,1,-3,9,4,1,0,0
1461662763795054,2,-1,-4,-8,-5,-2,-2,-1
1461662763795054,-2,-2,-2,-6,-2,-3,-1,-2
1461662763796037,-1,0,0,1,1,-1,0,-1
1461662763796037,-1,-6,0,1,-3,-1,1,-2
1461662763810045,-1,1,0,-3,0,0,-2,0
1461662763810045,1,0,-4,6,2,0,-1,0
1461662763817109,2,5,1,-6,-1,-1,0,0
1461662763817109,-3,-5,-16,-7,-4,0,-1,-2
1461662763834064,-2,0,12,14,1,0,1,-1
1461662763834064,-3,-4,-11,5,2,-1,-1,-2
1461662763840096,-2,-3,-2,-12,-3,-2,-3,0
1461662763840096,-1,4,21,7,2,0,0,-1
1461662763855234,-3,-1,7,-13,-10,-6,-3,-4
1461662763855234,0,-6,-18,5,8,3,0,1
1461662763856212,1,1,-1,6,1,1,1,1
1461662763856212,-1,-3,-2,-4,-4,-2,-2,-3
1461662763870249,0,0,-7,-6,3,0,-3,-2
1461662763870249,-1,3,8,3,-2,1,-2,0
1461662763877247,-3,-3,-11,-8,-4,-1,0,0
1461662763877247,-1,2,4,4,3,1,-1,1
1461662763892231,0,2,-3,2,-1,-2,0,-2
1461662763892231,0,0,1,-6,-5,-2,-2,-1
1461662763900237,0,-1,-3,3,1,0,-2,-2
1461662763900237,0,0,0,0,-1,-2,-1,0
1461662763915265,-2,-4,-7,0,0,0,-2,-1
1461662763915265,0,0,4,1,-1,-3,0,-2
1461662763916246,1,2,-9,1,-1,-1,0,0
1461662763916246,-4,-6,-1,4,1,0,-2,-1
1461662763930256,0,-2,-3,-8,-4,-2,-2,-2
1461662763930256,-3,-6,0,5,3,2,-2,1
1461662763937262,-1,-2,-3,-4,-1,-2,-1,-2
1461662763937262,-2,4,4,1,-5,-4,0,-3
1461662763952270,0,1,0,3,0,1,2,0
1461662763952270,0,-3,-5,-9,-6,-3,-1,-2
1461662763959277,-1,1,3,-3,-1,-1,-2,-1
1461662763959277,-2,0,0,1,1,2,1,2
1461662763975303,0,2,10,-3,-2,-1,-3,0
1461662763975303,-3,-6,-18,-9,-6,-3,-2,-3
1461662763983352,-2,-3,0,-1,2,-1,1,-1
1461662763983352,0,4,11,-5,0,-2,0,-1
1461662763989311,-1,-1,-5,7,1,-1,1,-1
1461662763989311,-1,0,2,1,3,1,-1,0
1461662763997360,0,-5,-5,-2,-3,-2,-2,-3
1461662763997360,1,3,-3,-1,-1,-1,-1,-1
1461662764012328,-2,-10,-23,-3,1,0,0,-2
1461662764012328,-1,1,1,-1,-1,0,0,-2
1461662764019348,-5,-1,5,-5,-4,-2,0,-2
1461662764019348,-1,2,7,5,4,1,-1,-1
1461662764034388,-1,0,-4,-2,1,1,0,1
1461662764034388,2,1,-1,0,-3,-4,-2,-2
1461662764043404,-5,-4,6,-4,1,0,-3,-2
1461662764043404,3,0,-2,5,5,4,2,2
1461662764058366,0,0,-5,0,0,0,1,-1
1461662764058366,0,3,0,-5,-2,-1,-1,0
1461662764058366,-3,-3,0,5,-5,-4,-2,-2
1461662764058366,-3,-5,-6,-12,-6,-3,-3,-3
1461662764072361,-2,-2,-2,2,-1,-1,0,0
1461662764072361,2,4,6,-9,0,0,1,0
1461662764079381,0,-3,-3,3,1,-1,-2,0
1461662764079381,2,2,-2,-1,-2,-2,-1,-1
1461662764094396,2,-4,3,4,3,0,0,0
1461662764094396,2,3,6,-4,-4,-2,-2,1
1461662764102377,1,0,0,-9,-5,-1,0,1
1461662764102377,0,-3,-3,11,8,1,-1,-2
1461662764111388,1,0,-4,-5,-3,-1,0,-2
1461662764111388,-6,-5,-3,-6,-6,-2,-1,-5
1461662764117407,1,5,6,7,5,0,0,0
1461662764117407,-3,-5,0,-8,-8,-4,-3,-1
1461662764132398,2,1,-6,5,4,0,0,0
1461662764132398,-2,-5,3,0,-2,0,-1,-2
1461662764139424,2,-1,-6,-2,-3,-2,-1,2
1461662764139424,-4,-3,-5,-5,-3,0,-2,-2
1461662764154473,-1,2,4,-4,-7,-3,-2,-2
1461662764154473,-2,-3,-4,5,0,-2,-2,-1
1461662764162434,-1,1,-3,-9,-1,2,1,0
1461662764162434,0,-3,3,-3,-5,-3,-1,1
1461662764178431,-3,-7,-12,4,3,-1,-1,-2
1461662764178431,-1,-15,-19,0,5,1,0,0
1461662764178431,-4,3,5,5,1,-1,-4,-3
1461662764178431,-5,1,-6,-5,-5,-2,8,0
1461662764192499,-4,-1,8,-6,-4,-4,-3,-2
1461662764192499,4,4,13,7,-1,2,-2,0
1461662764199505,-5,-3,-5,-3,-2,2,1,-1
1461662764199505,-1,-3,-7,2,-3,-2,8,-1
1461662764223477,1,4,6,-7,-5,-3,-8,-2
1461662764223477,-4,-5,-2,-2,-2,-3,-3,-5
1461662764224463,0,2,-2,2,2,-3,-3,0
1461662764224463,-3,-2,-3,-2,-2,0,0,-1
1461662764237532,1,0,8,-5,-9,-3,3,0
1461662764237532,-3,-3,-8,0,3,1,1,-1
1461662764238477,0,4,14,14,1,2,12,4
1461662764238477,-4,-10,-13,-9,-1,-1,-12,-2
1461662764252513,1,3,5,23,10,4,-4,-3
1461662764252513,-1,0,2,-8,-7,-6,-6,-3
1461662764259518,-5,-4,-17,-24,-8,-5,-1,-4
1461662764259518,2,0,4,25,8,1,5,3
1461662764274528,-3,-6,-2,-15,-5,0,-11,0
1461662764274528,2,2,-1,2,-4,-1,12,-1
1461662764282505,0,-12,-16,1,3,0,-5,-1
1461662764282505,-4,-2,0,2,2,-2,-7,-4
1461662764297515,0,-2,-8,-17,-9,-4,2,-1
1461662764297515,-2,2,5,3,-2,-4,-1,-2
1461662764298516,-2,-2,4,17,11,3,4,1
1461662764298516,-5,-2,-6,-16,-4,2,-1,-3
1461662764312584,2,2,7,8,2,1,9,3
1461662764312584,4,4,-6,-8,-5,-1,-3,2
1461662764319589,-7,-5,4,1,-3,-2,-10,-7
1461662764319589,-2,1,18,2,-4,-4,-10,-2
1461662764334555,-2,-2,-17,-4,6,2,3,-1
1461662764334555,2,4,11,-3,-7,-5,-1,3
1461662764343572,2,3,3,3,-2,1,16,4
1461662764343572,1,-3,-9,7,6,3,-8,-2
1461662764357583,-1,-1,-7,-18,-14,-6,-18,-11
1461662764357583,-8,-8,-1,19,16,2,-2,0
1461662764358564,-3,1,5,-14,-12,-10,-22,-1
1461662764358564,-8,-6,-6,7,6,-3,8,0
1461662764372570,2,2,-9,-9,-3,-1,5,3
1461662764372570,-7,-2,-14,-19,-5,1,5,-7
1461662764379572,12,6,27,47,12,8,6,3
1461662764379572,6,8,1,2,-1,0,6,0
1461662764394595,-6,-1,12,13,5,3,0,-3
1461662764394595,-13,-13,-12,-9,-3,-2,-4,-5
1461662764402589,0,0,-12,-32,-14,-4,4,2
1461662764402589,18,7,7,-16,-6,1,-2,4
1461662764417612,0,23,6,17,7,8,42,-1
1461662764417612,-11,-10,-10,14,6,2,-11,10
1461662764418600,-1,6,-17,-24,2,-1,-27,-14
1461662764418600,-14,-31,0,-1,-16,-17,-28,-5
1461662764432650,3,9,2,-9,11,-8,-25,-10
1461662764432650,4,5,9,23,2,0,4,-8
1461662764439646,5,22,4,2,3,8,28,8
1461662764439646,14,-10,-8,1,0,4,10,9
1461662764454685,-1,-13,5,10,-3,-8,-5,-4
1461662764454685,7,-2,-16,-21,-1,3,12,9
1461662764462644,-2,-3,-8,-34,-20,-7,-3,1
1461662764462644,9,30,30,35,19,12,34,5
1461662764477654,-17,-20,-19,-71,-30,-1,6,-1
1461662764477654,8,-2,6,77,38,11,-4,5
1461662764478643,5,6,7,19,0,-10,-34,-28
1461662764478643,-3,-15,-25,-41,-18,-8,-20,-3
1461662764492716,-14,-39,-5,28,9,1,7,5
1461662764492716,5,15,0,-65,-26,-13,-12,-6
1461662764499681,-7,-10,-18,-15,-3,-1,42,18
1461662764499681,-4,15,21,72,26,14,-17,0
1461662764514727,-13,-25,-6,13,6,1,-30,-38
1461662764514727,11,-10,18,-62,-38,-15,-5,2
1461662764522688,20,-8,-19,37,19,5,-4,14
1461662764522688,-15,20,9,-35,-20,-23,-14,-5
1461662764537743,-39,-4,-18,-8,3,18,53,19
1461662764537743,21,7,14,7,12,9,-56,-26
1461662764538689,-21,7,16,-94,-50,-33,-30,-19
1461662764538689,26,-19,18,85,62,17,41,26
1461662764552758,12,19,7,-19,-6,-3,-1,16
1461662764552758,-35,-32,-21,-38,-33,-13,15,-18
1461662764559712,18,46,18,22,25,27,31,13
1461662764559712,-13,-46,-6,-39,-26,-1,11,-16
1461662764574724,16,52,12,40,29,1,-11,13
1461662764574724,-2,-59,-41,2,1,4,14,5
1461662764582775,-6,-21,-1,29,12,-4,-56,-20
1461662764582775,-2,18,-25,-62,-35,-24,0,10
1461662764597786,6,3,11,-31,-23,-3,23,9
1461662764597786,-32,2,10,15,-1,-1,-13,-7
1461662764605733,-5,-30,-9,-14,-15,5,12,-20
1461662764605733,-2,3,20,-44,-9,-2,-40,-18
1461662764611749,3,-22,-15,41,35,-8,-27,0
1461662764611749,0,38,-9,-42,-7,-4,11,12
1461662764619801,1,-22,39,41,25,20,43,14
1461662764619801,20,14,-6,36,35,26,52,16
1461662764634812,11,18,-3,-85,-78,-19,-1,14
1461662764634812,7,25,43,108,74,16,-27,-7
1461662764642776,5,90,19,54,37,-1,-36,7
1461662764642776,-23,-23,-17,-31,-16,2,54,-4
1461662764657782,17,33,8,7,14,11,-22,-11
1461662764657782,-22,109,-25,-35,-30,-4,5,-11
1461662764658771,4,45,3,-12,-12,-8,1,0
1461662764658771,10,108,-19,11,15,6,10,-3
1461662764671783,19,-74,-12,-2,1,11,97,42
1461662764671783,21,-101,8,-82,-47,-14,-90,11
1461662764679844,-41,-83,-14,55,11,-26,-58,-25
1461662764679844,9,-68,-4,-18,-15,-23,-47,-14
1461662764694808,-47,13,-15,-26,-17,-4,0,-33
1461662764694808,13,7,9,36,21,9,48,12
1461662764701800,-9,-11,-17,22,-5,-1,21,4
1461662764701800,8,3,-6,-29,-4,16,36,10
1461662764719826,-2,30,75,35,-2,-7,-64,-30
1461662764719826,-3,-4,-56,64,29,2,21,11
1461662764719826,24,-3,-39,-68,-32,-13,-11,7
1461662764719826,-14,3,-4,-85,-56,-8,-22,5
1461662764731836,-14,14,-35,106,82,33,51,-5
1461662764731836,-39,-3,23,30,5,-9,-49,-21
1461662764739839,-3,-3,46,37,22,-5,-19,10
1461662764739839,30,-7,-37,-72,-25,0,40,22
1461662764754851,-6,8,-1,-22,0,3,-35,-18
1461662764754851,12,-3,-15,-44,-20,-6,13,-10
1461662764761845,-36,4,-13,-11,-5,11,23,-21
1461662764761845,4,-11,12,39,3,-8,-3,-27
1461662764777868,55,7,-19,-69,-33,-22,-48,12
1461662764777868,-44,-6,13,-24,-4,4,26,24
1461662764778856,24,-3,5,27,15,-2,-46,3
1461662764778856,4,-3,37,82,27,-6,-36,-6
1461662764791903,10,6,-31,8,-6,-7,7,-15
1461662764791903,-17,1,51,-80,-48,-15,7,-7
1461662764807877,-2,-7,-47,-64,18,28,56,8
1461662764807877,2,-3,6,40,29,3,-52,10
1461662764814939,52,11,-39,13,7,-1,20,14
1461662764814939,-23,-5,60,72,11,8,33,-2
1461662764822991,-11,-8,-31,-62,-51,-14,3,-16
1461662764822991,-2,3,16,19,27,14,-9,1
1461662764838045,13,-13,20,-40,-14,-12,-31,2
1461662764838045,-24,6,-40,-14,-2,-2,83,30
1461662764838987,-54,0,27,-22,-20,-14,-80,-39
1461662764838987,110,-4,23,29,16,3,28,46
1461662764852060,-34,3,-2,-3,-13,-4,-80,-37
1461662764852060,0,-1,-13,-2,-2,-14,-28,-17
1461662764860031,25,-3,-2,-57,-22,7,50,25
1461662764860031,-75,-7,0,25,26,20,25,-17
1461662764883019,16,-2,-31,7,8,0,46,13
1461662764883019,66,0,-6,68,10,6,-28,-1
1461662764885020,-45,5,50,41,35,5,4,20
1461662764885020,-46,-4,10,-31,-20,-6,-21,-6
1461662764897048,-28,6,21,26,12,2,13,-2
1461662764897048,28,1,-17,-15,22,6,-4,-5
1461662764905057,31,5,-15,-85,-69,-8,59,-3
1461662764905057,-36,8,8,106,65,23,-7,4
1461662764912068,-48,6,14,-11,-13,-22,-71,-18
1461662764912068,36,3,-1,-37,-10,3,-18,-12
1461662764920053,8,-5,-2,24,6,3,73,63
1461662764920053,-9,1,-20,-50,-41,-29,-49,-41
1461662764935085,31,-6,10,-18,-12,-11,0,50
1461662764935085,-1,1,-13,22,14,0,-21,-10
1461662764942076,16,-11,-15,9,7,2,8,-22
1461662764942076,-26,0,-16,-46,-37,-3,16,-15
1461662764957087,-7,3,6,-22,3,9,-4,-9
1461662764957087,26,3,10,20,15,3,9,0
1461662764965079,20,0,12,91,51,13,-3,5
1461662764965079,13,-7,-43,-70,-36,-14,-6,-2
1461662764972083,-23,-5,27,67,8,1,2,-8
1461662764972083,23,2,-3,-21,-4,3,24,10
1461662764980126,24,5,21,28,14,5,-30,-11
1461662764980126,-42,-19,-45,17,16,-4,3,14
1461662764995137,-1,2,-1,-34,-2,-2,25,-1
1461662764995137,-52,5,-21,8,3,-2,-34,-12
1461662765002132,21,0,-6,4,-9,-13,-8,8
1461662765002132,2,-7,7,-6,-6,-7,-29,-21
1461662765017143,13,-9,0,-2,-6,0,17,4
1461662765017143,-5,10,9,-3,-7,-5,6,5
1461662765025150,13,3,0,-18,-8,-8,-24,-9
1461662765025150,15,-3,6,-8,-12,-6,8,-5
1461662765040146,-33,-1,-19,-30,-17,0,13,-2
1461662765040146,5,7,28,18,0,2,-9,-11
1461662765041133,-12,2,-18,-10,17,14,4,6
1461662765041133,-10,0,19,43,3,-5,8,0
1461662765056141,24,-4,-9,39,27,5,-9,0
1461662765056141,12,-6,1,-11,-10,-5,8,3
1461662765062159,-35,-2,-12,-11,-13,-5,1,-3
1461662765062159,21,-7,-2,-14,-7,-1,-7,4
1461662765077168,4,-1,5,-18,-8,9,-1,-15
1461662765077168,-45,-5,-1,-4,5,3,19,4
1461662765085220,-14,-2,-16,-10,-10,-19,-23,11
1461662765085220,16,-7,7,-2,5,-34,-21,-18
1461662765108190,0,-16,9,7,1,24,-6,1
1461662765108190,-46,-9,-9,-10,-3,18,12,-4
1461662765109185,3,-2,-4,3,-4,13,1,-8
1461662765109185,-16,6,-24,-39,-26,-2,1,-11
1461662765115228,7,4,13,39,19,-5,13,8
1461662765115228,11,-2,-3,-64,-41,-17,1,-3
1461662765122197,3,-5,18,80,54,13,-7,5
1461662765122197,12,-6,-7,-10,-5,-5,-7,8
1461662765137204,-9,-10,0,3,5,-7,-1,-1
1461662765137204,8,-107,-14,11,3,-2,-4,9
1461662765145212,-11,-69,-13,-28,-21,-9,-2,-5
1461662765145212,15,26,6,-2,1,7,-1,4
1461662765160218,3,82,-2,-2,-13,-8,-1,12
1461662765160218,2,127,6,3,8,1,2,8
1461662765161218,-32,-72,-9,-24,-20,-10,-15,-28
1461662765161218,1,-108,10,16,10,9,22,10
1461662765175228,-23,-128,1,-8,-9,-4,-22,-6
1461662765175228,9,-46,-10,1,2,-15,-13,-13
1461662765190256,-5,31,9,-1,-6,-16,6,-3
1461662765190256,0,29,2,-4,-5,9,1,2
1461662765197242,11,22,3,-4,-3,25,6,5
1461662765197242,5,9,-17,-35,-4,1,-10,-2
1461662765205248,18,68,0,28,4,14,10,3
1461662765205248,0,52,15,41,25,2,1,1
1461662765220316,4,33,4,-21,-20,-12,7,1
1461662765220316,4,22,8,33,28,8,4,3
1461662765221261,6,29,17,6,-1,-6,-7,-1
1461662765221261,-3,30,-31,-21,-9,-3,-4,1
1461662765235284,0,2,-5,-11,-4,-7,-6,-8
1461662765235284,6,-78,5,10,0,-5,-4,-2
1461662765242331,19,-38,-7,-28,-12,-7,-2,0
1461662765242331,-22,15,24,12,-1,5,6,8
1461662765257284,-22,0,-11,-4,2,-8,-1,6
1461662765257284,-36,56,-7,-13,-14,-14,-28,-17
1461662765273296,4,48,-3,1,3,-2,-1,-4
1461662765273296,18,31,4,-9,-4,1,7,-3
1461662765280359,11,15,3,8,3,0,7,1
1461662765280359,17,3,8,12,5,7,17,11
1461662765281303,-1,-9,1,-7,-4,-2,-7,-4
1461662765281303,1,3,-7,-8,0,4,0,-4
1461662765294368,-3,-21,3,3,1,-4,7,-3
1461662765294368,6,-3,-7,-10,-11,-4,4,1
1461662765302374,-3,2,22,14,15,19,1,1
1461662765302374,1,-4,-3,11,5,-5,-5,-1
1461662765317385,-6,-15,-13,8,9,-3,-3,-5
1461662765317385,3,8,19,13,6,7,2,-2
1461662765325332,3,4,-14,-11,-5,-1,3,1
1461662765325332,-7,-12,-5,-7,-7,-4,-8,-5
1461662765340354,1,-3,6,13,-1,-9,-7,-5
1461662765340354,-4,-5,-10,-7,-6,-2,0,-1
1461662765341343,2,-1,-7,-17,-9,-8,-1,3
1461662765341343,-6,-14,3,7,2,-5,-8,1
1461662765354364,-2,-7,-5,-12,-5,7,2,-2
1461662765354364,5,-2,-1,1,-1,-6,-3,6
1461662765362375,-11,-11,-1,-6,-3,-3,-5,1
1461662765362375,-6,7,-1,-3,-2,21,2,0
1461662765377380,-1,-2,1,-6,-1,-10,0,1
1461662765377380,6,6,6,10,4,1,6,3
1461662765385386,-5,-7,-14,-9,-5,4,-11,-5
1461662765385386,0,-2,-2,-6,-6,-12,-8,-4
1461662765400423,0,-1,3,-1,-1,-1,-1,-2
1461662765400423,4,9,5,5,3,0,-1,0
1461662765401390,-2,4,-6,-5,-2,-4,-1,-1
1461662765401390,-2,5,1,-5,-2,-3,-2,-4
1461662765414433,-1,3,-13,-7,0,4,3,-1
1461662765414433,0,8,-4,-6,-9,-2,-2,-3
1461662765422404,-3,-5,-1,-8,-4,-1,3,-1
1461662765422404,3,7,37,31,11,6,3,2
1461662765437413,-3,-7,-22,-6,3,-3,1,-1
1461662765437413,-2,-15,-16,5,5,0,2,0
1461662765445481,0,-10,-17,-13,-8,-2,1,0
1461662765445481,1,-2,-1,-12,-8,-5,-3,-4
1461662765461428,2,7,23,4,-4,-3,0,-2
1461662765461428,1,-4,-4,-3,-2,2,1,0
1461662765468463,0,4,0,-2,-1,1,1,-1
1461662765468463,-6,-8,-15,-10,-4,-4,-4,-6
1461662765475438,3,1,10,6,0,-2,1,-2
1461662765475438,-5,-7,-2,-5,2,2,1,0
1461662765483476,0,-3,4,5,2,-3,0,-1
1461662765483476,3,7,-2,-2,-1,-2,0,-2
1461662765497471,1,-4,-9,-4,-1,-2,-1,-1
1461662765497471,-4,-7,4,2,1,1,-1,-2
1461662765505462,0,2,-1,3,-3,-2,2,-1
1461662765505462,-3,-5,-14,-14,-6,-4,-4,-3
1461662765520481,1,0,6,5,3,2,1,-2
1461662765520481,0,0,-8,-17,-3,-1,-1,-2
1461662765521474,-5,-7,8,0,-2,-1,0,-4
1461662765521474,1,1,-6,5,4,4,1,1
1461662765534538,-2,-4,-1,-6,-2,-4,-3,-2
1461662765534538,-2,0,1,5,5,0,0,-1
1461662765542543,2,2,3,-1,-2,0,-1,-1
1461662765542543,-2,-3,-4,-8,-6,-3,-1,-2
1461662765557496,-5,-3,1,6,2,0,-3,-3
1461662765557496,-1,2,1,-4,-5,-3,-2,-2
1461662765565559,-1,-1,-3,-3,-2,1,-4,-1
1461662765565559,0,1,-4,-1,-2,-2,-1,-1
1461662765588534,-1,-5,-2,-2,0,2,-3,-1
1461662765588534,1,2,3,8,3,-2,0,-1
1461662765589519,0,0,-3,2,2,-1,-1,-1
1461662765589519,0,-3,-1,0,-2,-3,-2,-1
1461662765594580,-1,0,-4,-8,-3,-2,0,-1
1461662765594580,2,3,4,1,-1,-2,-1,2
1461662765602586,-6,-3,2,9,5,0,1,-2
1461662765602586,-1,-4,-4,-7,1,0,-1,-2
1461662765617597,1,-4,0,0,-2,-1,-2,-2
1461662765617597,-1,-5,-5,-1,-4,-1,-1,-1
1461662765625543,1,3,2,7,-2,-1,-2,2
1461662765625543,0,-1,1,-1,6,4,1,-1
1461662765640613,-2,2,2,-4,-6,0,-1,-1
1461662765640613,-2,4,7,4,5,3,0,-1
1461662765641556,2,-3,1,-4,0,-2,0,2
1461662765641556,-2,-6,-1,8,4,0,-1,-3
1461662765662571,2,-1,-3,1,-2,-1,-1,-1
1461662765662571,-4,-3,-8,-5,-6,-2,-2,-1
1461662765664574,-6,1,0,-10,-6,0,-3,-2
1461662765664574,-2,0,0,0,-1,-2,-1,0
1461662765677682,-2,-3,-6,-7,-3,0,-2,-2
1461662765677682,-2,-3,-5,-2,0,-1,-2,-1
1461662765685705,-2,0,1,0,-1,-1,-1,-2
1461662765685705,1,3,4,-6,-4,-3,-2,-1
1461662765700745,0,-5,-7,-6,0,0,-2,0
1461662765700745,-1,-1,-1,1,1,-1,0,-2
1461662765701704,-1,0,-3,-2,0,-1,0,0
1461662765701704,-2,-3,-5,-5,-3,-3,-1,-2
1461662765714755,1,-1,3,2,-1,-1,0,-1
1461662765714755,0,1,2,3,2,-1,0,1
1461662765722711,-5,-4,-5,-6,-5,-1,0,-1
1461662765722711,-2,0,-1,-5,-5,0,-2,-1
1461662765737714,1,1,4,17,8,1,2,0
1461662765737714,-1,-2,0,-1,3,-1,0,0
1461662765745725,-1,1,-3,-6,-1,-1,0,-1
1461662765745725,-2,0,-3,0,-3,-2,-2,0
1461662765760732,0,-2,-5,-9,-6,-3,-1,-1
1461662765760732,-1,-1,3,-9,-11,-1,-3,0
1461662765760732,-2,-1,5,22,12,4,3,3
1461662765760732,2,0,-5,7,2,-1,-1,0
1461662765774742,-1,0,4,-6,-3,-2,-3,-2
1461662765774742,0,0,0,-2,-4,-3,-1,-1
1461662765782775,-4,-6,-5,-12,-7,-5,-2,-2
1461662765782775,-2,-2,-5,-6,-4,-2,0,0
1461662765797772,-1,-2,-1,1,-1,-1,-1,1
1461662765797772,-2,-1,-2,-2,-1,-1,-1,-3
1461662765805763,1,1,0,-4,-3,-1,-2,-1
1461662765805763,0,-2,-1,2,1,-2,-1,1
1461662765820809,1,2,1,0,-3,-1,-1,0
1461662765820809,-5,-6,-3,0,1,-1,-2,-2
1461662765821781,0,1,-3,-2,0,-1,0,1
1461662765821781,0,0,-1,1,-4,-1,0,-3
1461662765834811,-1,-1,2,-5,-3,-1,-1,0
1461662765834811,0,-1,-2,3,0,-1,0,0
1461662765842789,0,1,-6,-21,-12,-2,-1,-1
1461662765842789,-1,-2,1,6,6,-1,-1,-2
1461662765858814,-2,-3,12,27,9,1,1,0
1461662765858814,-2,-1,-6,-2,0,-2,0,1
1461662765865820,0,0,-3,0,1,-1,-2,0
1461662765865820,2,3,5,3,-4,-3,-2,0
1461662765879824,-1,-2,-7,-9,-3,-1,0,-4
1461662765879824,-2,-1,-1,-6,-2,-1,-1,0
1461662765888820,-3,-1,0,3,2,-1,-1,-1
1461662765888820,1,-1,-3,-13,-3,-1,-2,-1
1461662765894863,-3,-6,-6,-2,-3,-2,-2,-2
1461662765894863,-3,4,4,1,0,-1,0,0
1461662765918880,-3,-5,-4,-4,-2,0,1,-2
1461662765918880,-2,-2,3,3,0,0,-2,-3
1461662765919855,1,0,-3,-5,0,-2,-1,0
1461662765919855,-1,0,0,2,2,0,0,1
1461662765925845,-1,-1,0,5,-1,-4,-2,0
1461662765925845,-1,0,1,2,0,-1,-2,-1
1461662765939881,0,-1,0,-2,2,-1,-1,-3
1461662765939881,-2,0,-1,-1,-4,-1,0,-2
1461662765947903,2,-1,-2,-4,-1,-1,1,0
1461662765947903,-1,-2,-5,-14,-6,-3,-3,-1
1461662765954938,3,3,2,22,8,2,-2,-2
1461662765954938,1,1,15,12,8,3,-1,1
1461662765961873,-7,-6,-1,-3,-3,-3,-3,-2
1461662765961873,0,-4,-6,-2,-1,1,1,-1
1461662765977889,-1,1,-2,-9,-3,-2,-2,0
1461662765977889,-2,0,-5,-4,-3,0,-1,-2
1461662765985895,1,0,-1,2,0,-1,-1,-1
1461662765985895,-3,-2,1,-1,-4,-2,-1,-1
1461662766008930,-3,-1,-5,-7,-3,0,0,-3
1461662766008930,0,0,0,4,1,1,1,1
1461662766009906,-2,-2,-4,-6,-3,-4,-2,-2
1461662766009906,2,2,-1,-1,2,-3,0,0
1461662766022921,0,-2,-2,-6,-3,-3,-2,-3
1461662766022921,-1,0,-1,1,-1,-1,-1,-2
1461662766023921,-2,-4,-2,1,1,1,0,-2
1461662766023921,3,2,2,7,-1,-2,0,-1
1461662766036931,0,0,-3,-5,-2,-2,0,0
1461662766036931,1,1,-5,-7,-4,-3,-1,-1
1461662766045935,-3,-3,-9,-36,-17,-5,-2,-1
1461662766045935,3,4,22,46,23,7,1,2
1461662766059942,-3,-2,-4,-7,-2,-2,0,0
1461662766059942,-4,-2,0,3,0,-2,-2,-2
1461662766067947,0,0,-4,1,0,0,-2,-2
1461662766067947,-3,-2,-7,-16,-6,-2,-2,-3
1461662766082960,0,0,1,0,-4,1,-1,-1
1461662766082960,-1,-2,-6,-9,0,0,-2,-3
1461662766083958,1,2,6,12,3,0,0,0
1461662766083958,-2,-6,-7,-12,-5,-3,-1,-3
1461662766096970,1,3,3,6,2,-1,-1,-2
1461662766096970,-3,-5,-7,-6,-4,-3,-2,-2
1461662766104976,2,2,6,11,3,2,-2,0
1461662766104976,-5,-5,-6,-8,-4,1,0,-1
1461662766120029,0,-1,-5,-9,-3,0,0,-1
1461662766120029,-4,-3,-2,2,1,-1,-1,-2
1461662766128015,-3,-1,4,8,4,0,0,0
1461662766128015,0,1,1,-5,-2,-2,-2,-1
1461662766143014,-4,-4,-3,-14,-10,-3,-3,-3
1461662766143014,-1,-3,1,12,10,4,0,0
1461662766144015,-3,-3,-6,-6,-1,0,-1,-1
1461662766144015,1,-1,0,4,1,-1,-1,1
1461662766157024,-2,-2,-1,2,1,-3,-1,-1
1461662766157024,0,1,2,-4,-7,-6,-4,-2
1461662766165030,1,-2,-6,-8,-4,-2,-1,0
1461662766165030,1,-2,-1,-4,-2,0,0,0
1461662766188091,1,1,1,-1,0,0,0,2
1461662766188091,-2,-5,-5,-5,-5,-2,-1,-2
1461662766196053,-1,-2,1,7,3,-2,-1,0
1461662766196053,-3,-3,-4,-7,-5,-2,-2,-2
1461662766203101,-1,2,5,7,3,0,-2,-1
1461662766203101,-1,-2,-2,-5,-5,-1,-1,0
1461662766204055,-2,-3,-1,3,2,-1,0,-2
1461662766204055,-1,-2,-4,-2,-3,-1,-1,-2
1461662766219058,-2,0,0,-3,-4,-2,-1,-2
1461662766219058,-3,0,4,2,-2,-4,0,0
1461662766225072,0,-1,-3,-4,-2,-1,-1,-2
1461662766225072,1,1,-2,1,3,1,0,0
1461662766240099,-2,-2,0,2,2,0,0,1
1461662766240099,-2,0,1,2,0,0,0,-2
1461662766248132,2,1,1,0,-4,-1,0,2
1461662766248132,-3,-3,-1,-8,-5,-2,-2,-3
1461662766263086,0,-3,2,8,5,0,2,0
1461662766263086,1,2,-1,-1,0,-1,0,1
1461662766264087,-1,0,3,-1,-1,-1,-2,-1
1461662766264087,0,-1,-5,-6,-1,1,-2,-1
1461662766277109,-3,-3,-5,-12,-6,-3,-4,-3
1461662766277109,0,-1,0,7,-1,-1,-2,0
1461662766285160,-2,0,2,1,1,0,-1,-2
1461662766285160,0,1,1,-1,-1,-3,-1,-2
1461662766300170,-1,-2,-1,10,3,1,1,0
1461662766300170,0,1,-5,-7,-4,-1,-1,-2
1461662766308130,1,1,3,6,-3,-2,-2,-2
1461662766308130,0,-1,-1,-3,0,3,1,0
1461662766331139,-3,-4,-5,-7,-4,-1,-1,-2
1461662766331139,-1,0,-2,-7,-4,-1,-1,2
1461662766332135,-2,-5,-3,2,1,-1,1,0
1461662766332135,1,1,6,10,0,-3,-1,-1
1461662766337166,0,0,-4,-4,3,0,1,-1
1461662766337166,-2,-1,0,-1,0,-1,-2,-2
1461662766345172,1,1,-3,0,5,1,0,1
1461662766345172,1,2,1,-3,-2,-2,0,-2
1461662766360169,-1,-2,3,11,4,1,-2,-1
1461662766360169,-1,-1,-1,-3,1,2,1,-1
1461662766368175,0,0,-5,-5,-2,-2,-1,-2
1461662766368175,-2,-4,-4,-10,-7,-3,0,-1
1461662766383181,0,1,0,-4,-3,-2,-2,0
1461662766383181,-2,-2,2,2,-1,-1,-2,-2
1461662766384183,0,0,-1,0,-2,-2,-1,-1
1461662766384183,-1,-4,-5,-4,-2,-1,-1,-1
1461662766397191,1,-3,-1,-8,-5,-2,-3,-3
1461662766397191,-2,0,-2,5,0,-1,1,1
1461662766413190,0,-1,1,-2,1,-1,-1,0
1461662766413190,0,-1,-1,-3,-2,-2,-1,-2
1461662766420195,1,1,-1,-1,1,0,1,0
1461662766420195,0,0,-3,-6,-3,-2,0,1
1461662766435218,2,3,3,4,1,-1,0,0
1461662766435218,-4,-2,-1,1,1,-1,-1,-1
1461662766444211,1,-1,-1,0,0,-1,0,0
1461662766444211,-2,2,2,-8,-3,-3,-1,-1
1461662766445215,1,-1,-5,-2,-4,-3,-2,-1
1461662766445215,-1,1,4,9,6,0,-3,-1
1461662766457239,-4,-3,-6,-2,-2,-2,1,-2
1461662766457239,-1,-1,10,13,3,0,-1,-2
1461662766465266,-1,-1,-1,-3,-3,-1,0,-1
1461662766465266,0,-1,-1,7,2,0,-1,-3
1461662766480259,-4,-3,-5,-13,-7,-1,-2,-3
1461662766480259,-2,-1,1,-3,-4,-2,-3,-1
1461662766488282,0,-3,-2,16,9,3,-1,-1
1461662766488282,0,-5,-5,-5,-1,0,0,0
1461662766503293,-2,0,-2,-4,-2,0,-2,0
1461662766503293,-1,-1,-5,-5,-2,-1,-1,1
1461662766503293,0,-2,0,-5,-3,-1,-2,-1
1461662766503293,0,0,-1,-3,-2,-2,0,-1
1461662766517323,0,0,0,2,0,-1,-1,0
1461662766517323,-3,-1,-3,-3,-2,0,0,-1
1461662766525281,-3,-1,1,-1,-2,-1,0,-2
1461662766525281,-1,0,0,1,1,0,-2,0
1461662766540305,-2,2,4,3,0,0,-1,1
1461662766540305,-2,-4,-5,3,-2,0,0,-2
1461662766548345,-2,1,-5,-16,-2,0,0,0
1461662766548345,1,-1,3,-6,-9,-3,-2,-2
1461662766563297,-1,-1,0,10,4,-1,-1,-2
1461662766563297,-2,-2,-2,-7,2,1,-1,-1
1461662766564357,-1,-1,-6,-3,-1,-1,-1,-1
1461662766564357,-2,-1,6,-1,-3,-3,-4,-2
1461662766577318,-2,-3,-1,-6,-6,-3,-1,-4
1461662766577318,-3,-1,-6,-4,2,0,-1,-1
1461662766585372,-2,-3,-2,1,-2,1,-1,-1
1461662766585372,2,2,-2,-8,-1,1,1,-1
1461662766600340,-2,-2,2,3,-2,-1,0,-1
1461662766600340,-2,-4,-2,-6,-1,-1,1,-2
1461662766608340,0,0,1,1,-2,-2,-1,0
1461662766608340,1,0,-5,-3,-2,-2,0,-1
1461662766623368,-1,-1,1,1,-3,0,-2,0
1461662766623368,0,1,0,0,-2,-1,-1,0
1461662766623368,0,-1,5,6,2,-1,0,0
1461662766623368,2,-1,-4,3,2,0,0,1
1461662766637379,-1,-2,-2,-9,-3,-2,-2,-2
1461662766637379,0,-1,1,6,3,-3,-1,1
1461662766645356,-1,-2,0,-3,-3,-2,-1,-2
1461662766645356,-2,0,-1,-3,0,-1,-1,-1
1461662766659364,-1,-1,-6,-14,0,0,0,0
1461662766659364,-1,-1,-1,8,0,1,-2,0
1461662766668386,-3,-1,3,6,3,-1,-1,-1
1461662766668386,1,-1,-7,-1,0,0,-1,1
1461662766683430,1,2,7,10,-1,-3,0,0
1461662766683430,-2,0,-5,-13,-5,-2,-2,-2
1461662766683430,0,-3,3,6,-1,-1,-1,-2
1461662766683430,-1,-5,-1,-6,-3,0,0,-2
1461662766697451,0,1,0,-2,-2,-1,0,-1
1461662766697451,-2,-2,1,0,0,-2,-2,0
1461662766705398,-2,2,-2,-1,-3,-1,-3,-1
1461662766705398,0,-2,1,3,-2,-1,0,-2
1461662766719415,-2,-3,0,-3,2,-2,-2,-2
1461662766719415,0,1,1,-1,-3,-1,-2,-1
1461662766728435,1,-1,1,0,-1,1,-1,0
1461662766728435,-1,0,-1,3,3,-2,0,-3
1461662766743443,-2,0,-2,1,1,-1,-1,-1
1461662766743443,1,0,-2,-4,-1,0,0,1
1461662766743443,-3,-6,-9,-17,-8,-4,-2,-3
1461662766743443,0,0,-2,3,0,0,-1,0
1461662766757450,0,1,1,17,8,1,1,2
1461662766757450,-2,-1,5,2,-3,-1,-1,-1
1461662766764455,0,3,1,-1,-5,-1,-1,-1
1461662766764455,1,-2,-6,-12,-3,-3,-3,-2
1461662766779504,-6,-4,-6,-13,-5,-1,-4,-2
1461662766779504,-2,-3,1,4,1,-2,-1,-1
1461662766788511,1,-2,-2,-1,1,-1,-1,-1
1461662766788511,-1,0,2,4,0,0,-1,-1
1461662766802583,-2,-3,-1,-1,-3,-1,-2,0
1461662766802583,-3,-3,-3,-2,-2,-1,-2,-1
1461662766810528,0,0,-1,-2,1,1,-1,-2
1461662766810528,-1,0,1,1,-1,-3,-1,-2
1461662766817562,-1,-1,-2,-1,-4,-1,1,-2
1461662766817562,1,3,-3,-2,3,1,-1,-1
1461662766824565,-2,-5,1,1,-1,-1,1,-2
1461662766824565,-2,-1,1,0,0,1,0,2
1461662766839563,0,-1,1,0,-2,-2,-1,-2
1461662766839563,0,-2,-4,1,3,1,-1,-1
1461662766847569,1,1,-4,-5,-2,-1,-2,0
1461662766847569,-3,-1,-1,1,3,1,-2,1
1461662766862576,-3,-1,-4,-17,-12,-6,-3,-1
1461662766862576,2,2,4,16,8,2,1,1
1461662766870582,0,-1,8,21,6,0,-1,-2
1461662766870582,-4,2,-3,-4,-2,-1,0,-3
1461662766877613,-1,-2,0,5,1,1,1,1
1461662766877613,-1,-3,-2,-8,-9,-4,-2,-1
1461662766884618,-1,-1,-2,-7,-3,-1,0,0
1461662766884618,0,0,-1,-12,-5,-1,-2,1
1461662766916665,-2,1,2,11,7,3,-2,-1
1461662766916665,2,-1,-2,-5,-3,-1,-1,-1
1461662766916665,0,0,-8,-5,-1,-2,-2,-2
1461662766916665,-1,-2,5,11,-3,-3,0,-1
1461662766922609,0,1,-4,-7,-1,-1,0,0
1461662766922609,1,-1,1,2,-2,-1,-1,-2
1461662766930611,-1,-3,-6,-7,-3,0,-1,-1
1461662766930611,-3,-2,-5,-4,-2,-1,-1,-2
1461662766937616,-1,-1,-4,-3,-1,-3,0,1
