timestamp,emg1,emg2,emg3,emg4,emg5,emg6,emg7,emg8
1458285579857693,0,-6,-7,4,11,0,-1,0
1458285579857693,-1,2,1,-4,1,-1,-1,-2
1458285579877707,0,2,6,7,5,0,-1,-2
1458285579877707,1,-5,-5,4,0,-5,-1,-2
1458285579879221,-1,3,-5,-16,-3,1,2,0
1458285579879221,-1,0,7,7,0,-3,-2,-1
1458285579891909,-4,-11,4,4,2,1,-1,0
1458285579891909,2,3,6,-2,-1,0,3,2
1458285579898914,-1,-2,-8,12,3,1,1,-1
1458285579898914,0,5,-6,-11,-3,-1,-2,0
1458285579915441,-3,-4,-8,-9,-2,-3,-4,-3
1458285579915441,-1,2,9,11,4,2,-2,-3
1458285579916942,0,-2,7,2,-5,-5,-1,-1
1458285579916942,0,-2,8,5,4,6,0,2
1458285579937946,1,0,-17,-18,-8,-5,-2,0
1458285579937946,-3,-3,2,11,3,0,-1,-1
1458285579939460,2,1,-3,-9,0,-2,0,-2
1458285579939460,-2,1,-6,-16,-13,-1,-2,-1
1458285579951972,-4,-3,10,9,4,0,-1,-2
1458285579951972,-2,-3,-17,-6,1,1,2,-1
1458285579958969,3,3,10,13,5,1,-2,1
1458285579958969,1,1,-6,-13,-2,-2,0,0
1458285579974984,-1,0,3,4,-3,-1,1,-3
1458285579974984,-4,-4,-1,1,-7,-3,-2,-2
1458285579976985,-1,4,-3,-22,-3,-1,-3,-2
1458285579976985,-1,3,1,13,-1,-2,-2,-2
1458285579997989,0,0,-10,-9,-2,-1,0,-1
1458285579997989,-1,0,8,26,6,5,0,0
1458285579999490,0,-4,-6,-20,-3,-2,1,-1
1458285579999490,-2,-2,16,6,0,-1,-1,-1
1458285580012036,-2,2,-11,-15,-2,1,-1,-2
1458285580012036,-3,-4,14,7,4,-1,-3,-2
1458285580019127,-5,-7,-13,13,-1,-1,0,-2
1458285580019127,2,2,2,-19,-5,-3,-1,1
1458285580035083,1,-1,-1,0,-4,0,-1,0
1458285580035083,-3,6,-5,-3,7,-2,-1,-1
1458285580037107,-2,-8,-4,9,2,1,0,-1
1458285580037107,-3,-7,-3,-5,-1,1,1,0
1458285580057591,2,5,18,4,1,1,2,1
1458285580057591,-2,-6,-31,-10,-11,-3,0,-2
1458285580059091,0,3,6,11,9,2,0,2
1458285580059091,-2,0,-10,1,12,3,2,0
1458285580072121,0,2,22,8,5,-1,-2,-1
1458285580072121,-1,-2,-10,-9,-10,-2,-1,0
1458285580079120,-4,-7,-13,-23,-14,-4,-2,-3
1458285580079120,-1,-1,-2,12,-1,-2,-2,-2
1458285580095618,0,2,3,16,2,0,0,-2
1458285580095618,1,-2,15,-18,0,0,1,0
1458285580097131,-3,0,-29,-5,-4,-4,-1,-2
1458285580097131,-2,-4,1,-6,-4,-4,-3,-1
1458285580118135,2,8,-5,-1,-1,-2,-1,1
1458285580118135,3,1,12,2,-2,3,0,0
1458285580119636,2,1,-3,-11,-16,-2,0,-2
1458285580119636,1,5,15,25,12,3,1,-1
1458285580132207,0,-5,3,4,22,4,0,0
1458285580132207,-4,-8,-23,8,8,0,-1,0
1458285580139179,2,4,7,-8,4,1,-1,-1
1458285580139179,-4,-3,-4,-9,-3,-4,-2,-4
1458285580155190,0,-6,-8,-1,-7,-4,-2,-4
1458285580155190,-2,5,-7,-6,4,-1,-3,-2
1458285580157163,-1,-6,12,9,8,1,0,-1
1458285580157163,-3,-1,-13,-10,-3,-1,-3,1
1458285580177842,-2,4,7,13,-2,0,-2,-3
1458285580177842,1,0,15,-12,-13,-4,-2,-1
1458285580179283,-1,1,-2,15,3,2,1,1
1458285580179283,1,-1,-18,-20,-6,-1,1,0
1458285580192328,-1,-5,-29,-12,-2,-2,0,0
1458285580192328,0,3,5,4,-3,-1,-2,-1
1458285580198813,0,-10,15,16,8,0,-3,0
1458285580198813,1,7,14,1,-1,0,0,-1
1458285580215308,-4,-10,-7,-7,-9,-1,-1,-3
1458285580215308,0,7,8,1,0,-1,-1,-2
1458285580216811,1,2,-9,-6,-1,0,-2,2
1458285580216811,0,-10,6,0,-5,-2,-1,1
1458285580237885,-1,2,2,-2,-4,-2,-3,-4
1458285580237885,0,-2,10,3,7,1,0,-1
1458285580239324,-2,-4,-22,-3,-2,-2,-3,-3
1458285580239324,0,5,1,4,-2,-1,0,1
1458285580251350,-2,-8,-3,-3,-4,-2,-1,1
1458285580251350,-1,-5,-18,-11,2,0,-2,0
1458285580261351,0,5,19,15,-6,-1,0,1
1458285580261351,-2,-2,-1,-4,2,-1,-1,-3
1458285580275352,-1,2,-2,3,0,0,0,-1
1458285580275352,2,-1,-2,-2,-2,-3,0,-1
1458285580276867,-3,-5,4,-4,-1,-2,0,-3
1458285580276867,0,0,-9,-12,-6,-3,-1,-4
1458285580297864,-2,0,2,3,1,-2,0,-2
1458285580297864,-3,-4,-1,5,1,-2,1,0
1458285580299369,-1,4,4,-3,-3,0,-1,-2
1458285580299369,-1,-2,-3,5,0,-1,-2,1
1458285580311376,1,0,-1,-10,0,1,-2,1
1458285580311376,0,1,-3,0,-1,1,0,0
1458285580320382,-2,-3,-1,-9,-5,-4,-1,-2
1458285580320382,-2,-3,0,1,2,0,0,-2
1458285580335423,0,-1,-6,-7,-3,-1,-2,0
1458285580335423,-1,2,5,11,0,-2,-1,-3
1458285580336894,-2,-4,3,-8,1,1,-2,-1
1458285580336894,-1,-3,-10,-7,-3,-2,0,-1
1458285580357927,-1,2,2,-3,3,2,0,1
1458285580357927,-1,2,15,4,0,-5,-4,-1
1458285580359408,-2,-1,-19,0,1,1,1,-1
1458285580359408,1,-2,-2,8,-1,-1,-3,-1
1458285580380480,-2,0,5,0,-1,-2,-1,-1
1458285580380480,0,0,-9,-10,-1,1,0,-1
1458285580381982,-1,1,12,4,-3,-4,-3,0
1458285580381982,-2,-1,-19,-17,-6,-3,-2,-2
1458285580395449,0,-1,0,2,-5,0,1,-1
1458285580395449,-1,-2,-6,0,0,2,1,-2
1458285580396950,0,3,15,8,-6,-4,-2,-2
1458285580396950,-1,0,-8,-18,-16,-3,-4,0
1458285580417980,0,-1,8,21,12,2,2,1
1458285580417980,-4,0,-1,7,4,0,0,-2
1458285580419452,0,1,-7,0,4,-1,1,0
1458285580419452,-1,-2,13,9,1,-1,-1,-2
1458285580431522,-1,-2,-7,-15,-7,0,-1,-1
1458285580431522,1,-2,-1,3,-2,-1,0,1
1458285580440470,-1,-2,2,4,2,-1,-3,-2
1458285580440470,1,-5,-8,-8,-2,-3,-2,-1
1458285580455478,2,3,0,-8,-4,3,11,2
1458285580455478,-1,-3,1,-2,2,1,-1,0
1458285580462983,-4,-1,3,3,0,-1,-1,-2
1458285580462983,1,2,6,7,3,-1,-1,0
1458285580477994,1,-1,-10,-8,1,1,-6,-2
1458285580477994,0,-1,3,5,-4,-1,1,-2
1458285580479494,-3,-4,4,6,-1,-2,-3,-4
1458285580479494,-3,1,7,-8,1,3,3,0
1458285580491362,-1,-3,-12,-7,-1,-4,-3,-2
1458285580491362,1,7,-1,-10,-4,0,0,0
1458285580500372,2,-5,-12,-13,-3,-2,-2,-1
1458285580500372,-3,-1,17,15,2,-2,-2,-1
1458285580515308,-2,3,-6,6,-2,-2,-3,-4
1458285580515308,-1,0,-3,-9,1,-1,-4,-1
1458285580516751,2,5,-11,-5,3,-2,-1,0
1458285580516751,-3,-6,-6,-2,0,1,1,-1
1458285580537811,0,4,19,12,0,-3,-2,1
1458285580537811,-3,-10,-11,-3,-3,-3,0,-2
1458285580539767,2,3,-3,-4,-2,1,0,1
1458285580539767,-3,-2,-6,1,-2,-3,-3,0
1458285580551299,1,-1,6,-17,-2,3,3,3
1458285580551299,-3,-1,7,10,1,0,2,-9
1458285580560305,0,0,1,-6,-2,-3,-4,0
1458285580560305,0,-7,-6,4,2,5,19,0
1458285580575315,-1,2,1,1,-2,-4,-4,-1
1458285580575315,-3,0,6,2,-2,-1,2,3
1458285580576816,-4,-6,0,2,-2,0,-1,-2
1458285580576816,0,2,-16,-7,-2,-4,-8,0
1458285580597872,-4,-5,-9,-7,0,-1,-2,-3
1458285580597872,0,0,-14,-8,-5,-3,-3,1
1458285580599318,-4,-1,7,2,0,2,-1,-1
1458285580599318,-2,1,6,2,-4,0,-3,-1
1458285580611552,0,0,2,2,6,-1,-2,-2
1458285580611552,1,4,-2,-6,2,1,-5,0
1458285580620560,0,-2,-1,4,1,0,0,1
1458285580620560,-1,0,0,17,3,-2,-2,-3
1458285580635358,-1,-5,0,-16,-6,-1,1,-4
1458285580635358,0,0,1,8,1,0,-1,2
1458285580642957,-2,-2,1,-8,-2,-1,0,-3
1458285580642957,1,2,5,3,0,-1,-3,-3
1458285580657964,-2,-1,-2,12,-3,-6,-2,-1
1458285580657964,-1,-1,-3,-8,-5,-3,0,0
1458285580659966,0,3,-2,-8,-5,2,3,1
1458285580659966,-3,-7,7,10,2,-1,-4,-2
1458285580680349,0,-1,1,3,-1,0,-5,-1
1458285580680349,-1,1,-9,-8,1,3,1,-1
1458285580681858,-2,-1,-5,-1,0,-3,0,0
1458285580681858,-4,-5,5,4,4,2,0,-3
1458285580695360,0,-1,1,0,1,-1,-1,-1
1458285580695360,0,-2,-1,-1,-5,-2,-3,-2
1458285580696867,-1,-1,-6,1,0,-3,-4,-1
1458285580696867,2,4,-6,-17,-2,2,2,1
1458285580717903,-4,-3,3,10,1,-2,2,-3
1458285580717903,-3,1,4,2,-2,-5,-1,-3
1458285580719377,0,-1,2,-1,-3,-3,0,0
1458285580719377,0,0,-1,3,2,-3,-4,1
1458285580740394,-1,-2,-7,-5,-3,1,-3,-2
1458285580740394,-1,-2,-3,-4,-3,-3,-2,0
1458285580741894,-2,-3,4,4,1,0,-1,-2
1458285580741894,-1,-1,-12,-13,-1,-1,-1,-1
1458285580755476,-3,2,7,2,-1,0,-2,2
1458285580755476,-1,-8,-1,3,2,-1,-1,0
1458285580756927,2,4,9,12,3,1,2,0
1458285580756927,0,-5,-10,-4,0,-4,-3,-2
1458285580777992,2,5,-8,-12,-1,0,-1,-1
1458285580777992,2,-10,9,3,-1,-2,1,33
1458285580779433,-9,0,-3,12,0,-4,-7,-57
1458285580779433,-2,1,7,3,-3,1,0,-2
1458285580800444,-6,-3,-1,-2,-3,-1,1,-9
1458285580800444,-1,1,-8,-11,-4,-1,-1,-5
1458285580801945,3,-1,1,-9,-2,0,1,17
1458285580801945,-3,1,-4,0,-2,-1,-2,0
1458285580814452,-3,-4,-2,1,-1,-2,-2,-1
1458285580814452,1,4,-5,-9,0,0,1,-1
1458285580821460,0,-1,10,4,-1,-2,0,9
1458285580821460,0,4,5,15,2,-1,-2,-6
1458285580838012,1,-3,-3,-7,-2,-2,-2,8
1458285580838012,-5,-3,1,4,1,-2,-5,-10
1458285580839513,-1,-3,-10,-9,-1,2,1,3
1458285580839513,3,8,7,-8,-3,-3,-2,0
1458285580860011,-3,-9,-16,-5,2,1,0,0
1458285580860011,0,5,-1,5,0,0,-1,-8
1458285580863016,2,-2,0,-5,-3,-2,-2,3
1458285580863016,-1,-5,5,6,3,-1,1,4
1458285580875254,0,0,-3,-2,1,1,0,-2
1458285580875254,-5,-1,2,-6,-2,-1,-1,-8
1458285580881285,-1,-3,-11,-7,-4,-1,1,7
1458285580881285,-3,-2,-9,0,-4,-1,-1,-2
1458285580897785,-1,-1,3,4,-1,-1,-2,-5
1458285580897785,-1,3,-8,-4,-3,-1,1,-2
1458285580899286,0,-7,1,-7,-3,1,-1,3
1458285580899286,-3,0,1,-3,-1,-1,0,-2
1458285580920322,-2,-2,-16,-6,2,-2,0,0
1458285580920322,1,9,23,11,-1,0,-1,-1
1458285580921834,0,4,-5,-2,1,-2,-2,1
1458285580921834,-1,1,-16,3,0,-1,0,-3
1458285580934331,0,-3,4,-9,-1,1,0,10
1458285580934331,2,1,-1,5,-4,-2,0,-2
1458285580941352,0,0,-8,-6,-1,0,-1,-3
1458285580941352,2,0,-2,-13,-2,-2,-1,1
1458285580957866,0,3,14,16,-4,-2,-1,-3
1458285580957866,-3,-4,-6,9,2,-1,-1,0
1458285580959365,0,2,6,2,-3,-2,-2,2
1458285580959365,-1,-6,-5,-3,1,2,-1,-3
1458285580979944,1,1,1,-5,1,-3,-1,-1
1458285580979944,-4,-5,4,1,-1,-3,-5,-4
1458285580982764,0,-1,-9,-1,0,3,3,3
1458285580982764,0,7,-5,-11,-2,-1,-1,0
1458285580994573,0,-3,5,3,1,0,0,-1
1458285580994573,0,-2,5,5,3,0,-2,-1
1458285581001579,-4,-10,-14,-4,-2,-5,-4,0
1458285581001579,1,0,9,0,-3,-1,-2,1
1458285581017917,2,9,-5,1,-5,0,1,-2
1458285581017917,-4,-7,6,6,2,3,1,-2
1458285581019360,4,4,9,0,0,2,0,-2
1458285581019360,-1,-5,-14,-1,-2,-2,0,1
1458285581040204,-2,-3,5,4,1,0,-2,-2
1458285581040204,-2,-8,-16,-8,0,0,-2,-2
1458285581042220,0,7,6,-5,3,-2,-2,0
1458285581042220,-3,0,10,-6,1,-3,-1,-2
1458285581054776,1,0,-6,3,2,-3,-3,-3
1458285581054776,-5,-5,-5,1,2,0,1,-3
1458285581061712,-1,6,-12,-7,-7,-5,-1,0
1458285581061712,-2,-14,15,3,-1,2,-1,0
1458285581078730,-2,-2,-6,5,7,1,0,0
1458285581078730,1,7,3,-7,-9,-4,-1,-1
1458285581079733,-5,-11,0,2,-7,-3,-1,0
1458285581079733,0,9,7,10,22,3,1,-2
1458285581100279,-3,-6,-3,-6,-6,-2,-1,-1
1458285581100279,3,4,-2,-8,-5,-2,0,0
1458285581101780,1,1,6,1,-3,-2,-2,-1
1458285581101780,-3,-4,-18,-8,-16,-6,-2,-2
1458285581114654,-2,4,0,5,-1,1,-2,-1
1458285581114654,-3,-12,-9,-7,-1,-1,0,-2
1458285581121638,-1,2,7,-2,0,0,0,0
1458285581121638,0,2,-3,-1,2,-1,-1,-2
1458285581138120,-4,-4,-7,-9,-1,-1,-2,-5
1458285581138120,0,1,-8,-6,-4,0,-1,-2
1458285581139619,-2,-2,-3,-1,4,-1,-2,-1
1458285581139619,1,5,2,-9,-3,0,0,2
1458285581160093,-4,-13,-6,-2,-4,-4,-2,-1
1458285581160093,-1,8,4,-5,-2,-3,-2,0
1458285581162094,-2,-1,18,8,4,1,-2,-3
1458285581162094,-6,-6,-23,10,-4,-1,0,-2
1458285581174494,1,-2,-1,-10,-5,2,2,1
1458285581174494,-1,-1,-18,-16,-2,-1,-1,1
1458285581181499,0,9,29,20,-3,-1,-2,-1
1458285581181499,-5,-13,-14,-10,0,-1,-1,-3
1458285581198015,0,-4,3,0,-12,-4,0,-1
1458285581198015,2,-2,2,9,24,8,5,1
1458285581199532,0,-5,-31,-8,1,0,0,0
1458285581199532,-1,3,12,6,4,2,-2,-1
1458285581220533,1,1,12,2,0,-1,-1,1
1458285581220533,-1,5,10,-4,-7,-3,-2,-1
1458285581222032,-2,-3,-14,-11,-7,-2,-1,-1
1458285581222032,1,-1,16,7,-1,-1,0,1
1458285581234044,-3,1,-10,-13,-3,-2,-2,-1
1458285581234044,2,5,18,5,-2,-3,-3,1
1458285581243047,-1,-2,3,3,4,2,-1,-1
1458285581243047,-4,-12,-43,-10,-14,-4,-2,-3
1458285581258058,-2,-1,-14,-6,0,-3,-2,-4
1458285581258058,-3,-2,16,12,-2,0,0,-2
1458285581259587,-1,-4,25,9,3,1,2,-2
1458285581259587,0,-2,-42,-20,-5,-1,-1,-1
1458285581287826,0,0,12,9,2,2,0,-1
1458285581287826,-1,-4,-9,-10,-5,-2,-1,-2
1458285581296119,-1,-1,-6,2,-1,-1,0,1
1458285581296119,0,5,15,0,-3,-3,1,-1
1458285581297150,1,3,12,5,3,-2,-3,0
1458285581297150,-3,-5,-18,-1,0,-1,-2,-2
1458285581303123,-1,0,-2,0,1,-1,1,-1
1458285581303123,1,3,11,2,-3,-1,-3,1
1458285581318140,1,-2,-3,-1,2,1,1,0
1458285581318140,1,0,10,-1,-4,-2,-2,-1
1458285581319641,-3,-3,-18,-6,1,-3,-3,-2
1458285581319641,-1,0,9,-1,0,-1,0,-2
1458285581339665,0,1,-2,-7,4,0,2,0
1458285581339665,-2,-1,-8,8,-5,-3,0,-1
1458285581342010,-2,-5,-2,-9,-7,-2,-1,-3
1458285581342010,1,2,6,8,13,2,-1,1
1458285581354032,-6,-14,-6,-4,-6,-3,-3,-2
1458285581354032,2,2,-4,0,-2,0,1,0
1458285581363038,-2,4,8,1,-6,-2,-1,0
1458285581363038,-1,0,5,0,4,-3,-1,-2
1458285581378549,1,-10,-15,-2,3,0,-1,-2
1458285581378549,-3,0,7,-4,-1,-2,0,-1
1458285581380062,1,-6,-25,-19,-1,0,-1,-2
1458285581380062,1,3,28,21,-4,2,-2,1
1458285581400503,-1,5,2,8,5,0,-1,0
1458285581400503,-3,-7,-7,-1,-4,-2,-1,-2
1458285581402008,1,2,6,1,2,1,-1,1
1458285581402008,0,-3,-2,-5,-3,-4,-2,-3
1458285581414030,0,3,-3,-7,-5,-1,-2,-1
1458285581414030,-1,3,8,-2,-3,0,-4,-1
1458285581429028,-1,-2,-8,3,1,-3,0,-1
1458285581429028,0,0,5,0,-3,0,-1,0
1458285581437534,-1,4,5,9,0,-2,-1,-1
1458285581437534,-1,-4,-19,-1,3,-1,-2,-1
1458285581439538,-3,-3,-12,-3,-2,-4,-2,-2
1458285581439538,-2,-2,1,-4,1,1,0,-1
1458285581460221,-1,4,9,2,-2,-1,-4,0
1458285581460221,-1,-3,-3,-7,1,1,2,0
1458285581461869,-1,-3,-5,0,-3,1,1,1
1458285581461869,-1,1,8,3,-2,-1,0,-2
1458285581474121,1,4,-2,-9,-3,1,-1,1
1458285581474121,-1,-5,-3,10,0,-1,-2,-2
1458285581483269,-4,0,12,8,0,-3,0,-4
1458285581483269,-2,-3,-12,-13,-3,0,-2,-3
1458285581497822,2,3,2,-2,1,1,3,5
1458285581497822,6,0,-6,-12,0,0,-2,27
1458285581499285,-5,0,-5,1,0,-2,1,-22
1458285581499285,-3,-2,11,13,-1,-2,-1,1
1458285581520329,-3,-6,-5,8,3,-2,-11,-14
1458285581520329,-3,-1,6,21,-2,1,13,-6
1458285581521807,3,-3,-7,-42,-6,-3,-2,8
1458285581521807,1,2,-12,-9,-3,1,5,30
1458285581534105,-6,-1,-8,-17,-7,-4,-3,-47
1458285581534105,0,-3,2,15,3,2,-5,3
1458285581542827,0,1,9,32,5,-1,-4,-5
1458285581542827,0,0,-10,-12,-1,0,2,-3
1458285581557836,-2,5,15,3,2,-2,2,18
1458285581557836,-2,-1,3,-2,0,0,-3,-10
1458285581559837,-3,-5,-19,-9,-4,-1,0,3
1458285581559837,-1,-4,5,10,2,-1,-4,-7
1458285581579934,2,1,-5,9,0,-1,3,10
1458285581579934,-1,3,12,-21,-1,-3,-3,-10
1458285581581880,4,6,12,11,1,0,0,7
1458285581581880,-2,1,-13,-5,-3,-1,-1,-3
1458285581594099,0,-4,3,19,3,2,3,2
1458285581594099,-3,-2,-15,-7,-3,-3,-3,-3
1458285581603109,0,-1,6,-1,-1,-1,-1,3
1458285581603109,0,0,1,6,13,5,2,-6
1458285581617592,0,1,10,11,2,1,-1,5
1458285581617592,-2,-5,-6,-10,1,2,-4,-2
1458285581619646,-4,-3,0,-6,-5,-4,-1,0
1458285581619646,-2,-1,-5,-12,-3,0,1,-5
1458285581640102,0,-2,-4,-7,3,-1,0,5
1458285581640102,0,3,5,9,1,-2,-1,-2
1458285581641936,-1,-2,0,9,-2,-2,-2,-1
1458285581641936,1,0,-3,-5,-3,-6,-3,-4
1458285581663032,-3,-5,-6,-8,-7,-3,-1,2
1458285581663032,-1,1,6,2,-7,-2,-1,-4
1458285581664477,-1,-5,-14,-1,18,5,1,-1
1458285581664477,-2,-4,17,17,-4,-3,-3,-3
1458285581677494,-2,2,-11,-18,-10,-3,2,1
1458285581677494,0,-2,-4,-11,-4,-2,0,-1
1458285581691494,-1,0,3,8,2,2,-1,2
1458285581691494,-1,1,12,8,3,-1,-3,-2
1458285581700509,-1,-2,10,6,2,0,-2,0
1458285581700509,-3,-1,-6,-12,-4,-3,-2,-2
1458285581702004,-1,-6,-19,-7,-7,-3,-1,0
1458285581702004,-1,-4,-9,-9,-5,-2,0,-1
1458285581723027,-1,0,7,10,-2,-3,-2,-1
1458285581723027,1,3,3,-8,5,0,0,0
1458285581724527,0,0,3,-5,-5,-2,-1,0
1458285581724527,-1,-2,8,6,2,-1,0,0
1458285581737072,-2,-5,-27,-16,-4,-2,-1,-2
1458285581737072,-4,-4,2,3,0,0,-2,-3
1458285581744102,-1,0,-2,-3,-6,0,-1,-2
1458285581744102,0,1,14,8,1,0,-2,-1
1458285581760572,-1,-2,-15,-23,-1,1,-1,2
1458285581760572,-1,-1,-7,7,-11,-3,-2,-2
1458285581762073,0,-2,-3,-9,8,-1,-1,-3
1458285581762073,0,2,0,-4,5,3,2,-2
1458285581783450,0,0,10,13,5,-1,-2,-1
1458285581783450,0,-2,-6,-4,2,-1,-3,-2
1458285581784949,-2,-2,4,-9,-13,-4,-2,0
1458285581784949,0,-5,-15,-3,-2,-1,-2,-2
1458285581797152,-2,3,14,-4,-5,-4,-3,-2
1458285581797152,0,1,8,11,3,-2,-3,1
1458285581804162,0,-1,7,10,-1,-2,1,0
1458285581804162,-3,-6,-17,-11,-6,-2,-1,0
1458285581820180,0,-3,-10,-14,-4,0,3,1
1458285581820180,0,6,27,24,3,0,2,-1
1458285581821695,-2,-3,-5,0,4,0,0,-1
1458285581821695,-2,-4,-4,-14,-5,-2,-2,-1
1458285581842750,-1,5,8,10,-1,0,-1,0
1458285581842750,1,-1,-7,-7,1,0,1,0
1458285581844247,0,2,2,-18,-9,0,0,0
1458285581844247,-3,1,-2,15,6,0,-2,-1
1458285581856259,-2,-3,6,12,6,0,-2,0
1458285581856259,0,-6,-19,-6,2,2,-1,0
1458285581865265,-2,3,1,1,2,-4,-2,-2
1458285581865265,0,1,-21,-23,1,1,-1,-2
1458285581880082,4,3,22,11,-5,-1,-1,0
1458285581880082,-5,-7,-4,0,-2,-2,-1,-3
1458285581882030,-2,1,4,9,2,1,0,-1
1458285581882030,-3,-1,10,-4,-10,-6,-2,-2
1458285581902779,-1,-1,-22,-14,1,-1,1,0
1458285581902779,0,-3,-1,2,-8,-1,-2,-1
1458285581904280,1,1,0,-9,-1,0,0,-1
1458285581904280,-1,-2,7,11,-7,-2,1,-2
1458285581917290,0,3,5,5,11,1,0,-1
1458285581917290,-3,-1,-9,-3,-3,0,0,-1
1458285581923912,-1,2,3,9,-2,-1,-1,0
1458285581923912,2,0,11,12,14,1,-1,-1
1458285581940390,-1,-6,-22,-14,-16,-4,-2,-3
1458285581940390,-2,2,7,3,5,-1,-1,-2
1458285581941874,-1,1,2,2,9,4,0,0
1458285581941874,-1,3,6,-1,-9,-6,-2,-2
1458285581962889,-2,-9,-1,0,8,6,-1,2
1458285581962889,0,3,-8,-8,7,0,-1,0
1458285581964390,-2,-10,5,-3,-13,-4,-3,-2
1458285581964390,-3,4,8,34,4,0,-1,-2
1458285581976455,-2,-2,-22,-8,-4,-4,-2,-4
1458285581976455,1,1,-2,-18,-5,-1,0,1
1458285581985399,-1,2,6,6,-2,-2,-2,-2
1458285581985399,-1,-2,-9,-19,-9,-3,-1,0
1458285582000412,0,0,12,17,2,-2,0,-2
1458285582000412,1,0,-3,-2,-2,-1,-1,1
1458285582001910,0,2,0,2,2,-1,0,-1
1458285582001910,0,-4,-2,-6,1,-2,0,1
1458285582022881,0,-1,-7,0,0,2,-1,0
1458285582022881,0,2,1,-10,-3,-2,-2,-1
1458285582024398,-2,-5,-3,5,3,2,-2,-1
1458285582024398,0,2,-6,-8,-1,1,0,1
1458285582036460,1,9,16,-10,-11,-6,-2,1
1458285582036460,-7,-19,-16,-11,0,-2,-3,-3
1458285582045733,-3,-3,-19,11,7,1,1,0
1458285582045733,2,11,-1,-6,1,2,2,1
1458285582060394,-5,-16,5,19,16,0,-2,-3
1458285582060394,0,0,-8,-7,-4,-1,-1,-1
1458285582062424,3,7,17,-8,1,1,1,1
1458285582062424,-2,-8,-31,23,-5,-2,-1,-3
1458285582083025,-3,0,-1,-1,-11,-4,-2,-1
1458285582083025,1,-4,9,-8,1,1,1,1
1458285582084476,-2,-6,-21,-16,-6,-3,-3,-2
1458285582084476,-1,5,13,-8,-3,0,-2,-1
1458285582096516,1,4,3,-1,0,0,0,0
1458285582096516,-3,-2,-1,22,2,0,-2,-1
1458285582105522,-1,2,9,-8,0,1,-1,-1
1458285582105522,-1,-5,-9,-6,-4,-1,0,-2
1458285582120089,-1,0,-5,-4,-2,2,0,-2
1458285582120089,1,-1,6,-1,-6,-4,-1,1
1458285582122000,-3,-6,-1,-1,-1,-4,-3,-2
1458285582122000,-2,-1,-12,-3,6,0,-1,-2
1458285582142535,-4,-4,-2,6,-1,1,1,2
1458285582142535,2,11,3,-25,-7,-1,0,-1
1458285582144536,1,-3,13,4,6,2,1,0
1458285582144536,0,7,12,-19,-8,-2,-1,0
1458285582156609,3,-6,-10,20,6,1,-2,1
1458285582156609,-4,-12,12,11,-6,-2,-3,-1
1458285582165386,-3,-1,-25,-7,-2,-5,-1,-2
1458285582165386,-2,-5,-4,-4,2,-1,-1,-1
1458285582188607,1,-6,-23,1,-5,-1,-2,0
1458285582188607,-2,16,-3,-23,1,1,-2,-1
1458285582190106,2,3,0,-4,-3,0,-1,0
1458285582190106,-2,-2,14,-3,-4,-2,-1,-1
1458285582203121,-1,5,13,7,-6,-3,-2,-2
1458285582203121,0,-4,-14,13,1,1,-1,-1
1458285582204621,0,1,7,1,11,3,-1,0
1458285582204621,-1,-1,-1,4,-7,0,0,0
1458285582216630,-1,0,20,0,9,-1,-1,-1
1458285582216630,-2,-6,-31,-7,-10,-4,0,0
1458285582225648,-2,-3,-4,-5,-10,-2,0,1
1458285582225648,0,7,25,12,8,1,-1,0
1458285582240159,-1,-1,-31,-12,-6,-2,1,-1
1458285582240159,1,10,11,18,9,0,1,0
1458285582242166,-1,-8,9,0,-8,-4,-4,0
1458285582242166,0,-8,3,-1,-4,-1,-2,-2
1458285582262689,2,16,-1,-5,1,0,0,-1
1458285582262689,-6,-31,-15,5,3,-4,-2,-3
1458285582264696,0,-1,-7,-1,-2,-2,-2,0
1458285582264696,0,0,-13,-17,-4,-1,0,-1
1458285582276704,-1,-4,2,-20,-6,1,0,-2
1458285582276704,1,2,11,20,12,2,-1,-1
1458285582285211,-1,-3,-30,-9,3,-2,-1,-2
1458285582285211,-1,-5,0,5,0,-1,0,-1
1458285582301227,-3,-9,-9,0,-3,-1,-1,-1
1458285582301227,1,6,14,1,-3,-2,0,-1
1458285582302728,1,6,17,15,4,-3,1,-2
1458285582302728,-1,6,6,-3,4,0,0,-1
1458285582323030,-4,-5,-5,-21,-6,-2,-2,-2
1458285582323030,-1,5,-2,-4,-7,0,-2,-1
1458285582324546,-1,0,8,-2,8,4,3,2
1458285582324546,0,-6,-16,1,-1,-2,-4,-2
1458285582345416,1,7,31,-4,-2,-3,-4,1
1458285582345416,-4,-14,-20,6,-3,-3,-3,-2
1458285582346914,-3,-7,2,-3,-4,1,-1,-2
1458285582346914,-2,6,0,19,7,-1,-2,0
1458285582358931,0,3,7,-8,-2,1,1,0
1458285582358931,1,6,5,3,-6,-2,0,-1
1458285582367940,-3,0,-11,-4,-10,-4,-1,-1
1458285582367940,0,-5,10,7,0,1,1,1
1458285582382982,0,-3,-14,-15,-1,-1,-2,-2
1458285582382982,0,5,-6,-13,-3,-2,-1,-1
1458285582384471,-2,1,23,8,0,3,-1,-2
1458285582384471,-1,-7,-35,-5,-5,-2,-2,-1
1458285582396519,0,-1,7,10,6,0,-1,-2
1458285582396519,0,3,22,2,2,3,1,0
1458285582405497,-2,2,-17,-3,-4,-3,-3,-3
1458285582405497,-1,-7,1,-8,-2,-2,0,-2
1458285582419565,-2,3,4,-1,0,-3,-1,1
1458285582419565,-2,-4,-3,7,15,2,-1,0
1458285582421901,0,4,6,3,0,3,1,1
1458285582421901,-1,-3,0,-9,-1,-1,0,-1
1458285582442820,-1,1,-4,7,-5,0,0,-2
1458285582442820,-2,-4,13,5,-4,-2,-1,-2
1458285582444779,-1,-8,-15,-14,-6,-6,-3,-1
1458285582444779,1,3,13,1,2,3,0,-1
1458285582456804,-2,-9,-18,-11,-4,-3,-1,0
1458285582456804,0,10,1,-6,-1,-1,-1,1
1458285582465420,-2,-19,-3,0,-6,-3,-1,-2
1458285582465420,-1,1,10,5,1,-1,1,-2
1458285582479780,0,-1,-14,7,5,3,1,-2
1458285582479780,-3,-4,-3,-10,0,0,0,-1
1458285582486529,-1,5,1,9,1,-1,0,-2
1458285582486529,-1,-1,10,1,-1,1,0,0
1458285582503024,0,-3,-1,3,5,1,-1,-2
1458285582503024,-2,-3,-2,1,-5,-5,-4,-3
1458285582504507,-1,4,-13,-7,-1,-2,0,-1
1458285582504507,1,1,-3,-12,1,2,-1,0
1458285582516504,0,0,-4,-9,-2,-1,-2,0
1458285582516504,-1,-7,-3,0,-13,-4,-1,-2
1458285582525520,0,6,26,19,7,-1,-2,0
1458285582525520,0,-2,-21,-7,-7,-1,-1,-2
1458285582539865,-5,-15,-6,-15,-5,-1,-1,-2
1458285582539865,3,6,3,9,3,4,2,1
1458285582546773,0,-1,1,-6,-3,-3,-2,-2
1458285582546773,-2,0,2,-5,-1,-2,0,0
1458285582561780,-2,-4,-11,0,-3,-4,-4,-3
1458285582561780,-3,0,2,1,-7,-3,-1,-4
1458285582570784,-1,-3,-12,-16,0,1,-2,0
1458285582570784,0,2,8,-7,5,4,0,0
1458285582585309,1,1,-2,13,-7,-5,-3,0
1458285582585309,-2,-4,-3,-14,-1,-1,-1,1
1458285582586795,1,3,0,6,6,0,0,-2
1458285582586795,-2,1,0,2,-4,-6,-4,-1
1458285582599718,-2,2,11,7,-2,-2,0,-2
1458285582599718,1,0,-2,-7,3,-1,-1,0
1458285582606723,-1,-4,-11,-5,-3,0,-1,-1
1458285582606723,-3,-6,-25,-2,-7,-4,-2,-2
1458285582623062,0,10,21,26,4,2,1,-1
1458285582623062,-2,-1,13,-12,2,-1,0,0
1458285582624532,1,3,25,7,0,0,-1,1
1458285582624532,-3,-4,-22,11,2,-4,-2,-3
1458285582645414,-4,-10,-16,-11,-7,-1,-2,-1
1458285582645414,-1,0,-3,0,11,4,0,1
1458285582646887,0,1,-8,-2,-2,0,-1,-2
1458285582646887,0,-1,27,5,-1,0,1,1
1458285582660389,-1,-1,-13,-20,-13,-6,-3,-1
1458285582660389,-2,-2,-6,14,-4,-1,-2,-2
1458285582661895,-3,-3,2,0,-2,1,-1,0
1458285582661895,1,4,13,10,1,2,-1,-2
1458285582682906,1,-2,-3,-11,4,1,1,0
1458285582682906,-1,-5,-5,2,-7,-6,-1,-2
1458285582684351,-1,6,-9,-5,1,-2,-1,-2
1458285582684351,-1,3,-3,-11,-4,-1,0,0
1458285582705563,-2,1,3,-4,0,-1,-1,2
1458285582705563,-2,3,-8,-8,-3,0,-1,-1
1458285582707051,-1,-8,3,9,-4,-1,0,0
1458285582707051,0,0,7,-1,0,-1,-1,-2
1458285582719616,-2,-1,-1,-8,-6,-3,-1,-3
1458285582719616,0,0,19,8,13,4,1,0
1458285582721941,-3,-2,-28,0,-2,-3,-2,-2
1458285582721941,-3,-6,-6,-19,-13,-4,-2,0
1458285582742821,1,7,42,34,7,4,1,0
1458285582742821,-2,-2,-26,-31,-8,-3,0,-2
1458285582744780,-3,-3,-1,-9,-4,0,1,-1
1458285582744780,0,0,2,0,3,1,-1,0
1458285582765243,-1,-2,-6,1,-3,-3,-2,0
1458285582765243,0,-5,5,10,-3,-2,-2,-2
1458285582767201,-1,5,8,1,7,-2,-2,-1
1458285582767201,-4,-6,-14,-12,-4,-2,-2,-2
1458285582779705,0,2,4,-1,3,1,0,0
1458285582779705,-4,-4,-3,8,-1,-3,0,-2
1458285582786749,-1,-3,-8,-1,6,-1,-2,-1
1458285582786749,-2,-3,1,21,2,-1,-3,-1
1458285582803052,1,4,22,-10,3,0,-1,0
1458285582803052,0,3,-19,-18,5,3,-1,0
1458285582804553,-1,-5,-4,-7,-9,-1,0,0
1458285582804553,0,2,12,5,5,2,1,0
1458285582825587,0,1,-8,-6,2,0,-2,-1
1458285582825587,-1,-2,-6,0,-10,-4,-3,-1
1458285582827087,-1,2,16,0,-4,-1,1,-1
1458285582827087,-1,-4,-14,-6,0,-2,-2,-3
1458285582839597,-1,-2,-1,16,6,0,0,-1
1458285582839597,0,1,0,4,0,-2,-2,0
1458285582846395,0,-4,-11,-4,-3,-1,0,-1
1458285582846395,-2,1,6,-6,-5,-4,-2,-1
1458285582862437,-1,-3,-17,-8,-3,-2,-2,-2
1458285582862437,-3,-4,-13,-6,-2,-2,-3,-2
1458285582863976,1,6,13,-9,-2,-1,0,-3
1458285582863976,-1,-2,4,4,-1,-2,-1,-1
1458285582884692,-3,-1,-18,-9,-7,-3,0,0
1458285582884692,-2,-2,4,8,-1,1,1,1
1458285582885694,-2,1,3,12,-2,-3,-3,-1
1458285582885694,-2,0,-12,-17,-6,-1,-2,-3
1458285582898895,1,0,14,11,3,-1,-3,-2
1458285582898895,0,1,8,12,-8,-4,-1,-2
1458285582906427,0,-4,-20,-13,3,2,1,-1
1458285582906427,0,2,1,6,5,0,1,0
1458285582922389,-1,-5,-15,-13,-2,0,-2,-2
1458285582922389,1,2,3,-7,-8,-1,-1,-1
1458285582922847,-2,-4,3,4,-2,-4,-2,-2
1458285582922847,0,-2,3,3,-2,1,-1,-1
1458285582944683,1,4,20,9,9,3,0,-1
1458285582944683,-1,-2,-6,1,0,-1,0,0
1458285582945645,-3,-1,1,7,-3,-1,-2,0
1458285582945645,-2,0,-4,-10,1,-4,0,-1
1458285582958837,-3,-4,0,8,8,1,-2,-2
1458285582958837,-1,0,10,0,2,2,-1,0
1458285582967360,0,-2,1,-3,3,-2,-2,0
1458285582967360,1,1,-4,-2,-6,-2,-2,-1
1458285582983419,0,1,12,-1,-11,-3,-1,0
1458285582983419,-1,-2,-2,6,8,-1,0,-1
1458285582984423,1,3,7,4,7,2,2,-1
1458285582984423,0,-2,-9,2,6,3,0,-2
1458285583004446,-1,-1,-6,-8,-4,-2,0,-2
1458285583004446,-2,0,1,0,-3,-1,-4,-1
1458285583005444,0,-2,-10,-3,-4,0,-1,-1
1458285583005444,0,-1,5,8,12,2,-2,-1
1458285583019000,-3,-1,-6,-3,-4,-1,-1,-2
1458285583019000,-1,-1,3,-8,-5,-4,-1,-1
1458285583026506,-2,1,9,9,2,-1,-1,-1
1458285583026506,-1,-1,-2,-5,-5,-1,1,0
1458285583042098,-1,-4,-28,-9,-4,-2,-1,-1
1458285583042098,0,1,15,12,-1,-1,-3,-1
1458285583043054,-3,-2,-16,-20,-8,-2,-1,0
1458285583043054,-2,-1,7,-2,-3,-4,-2,0
1458285583064851,-1,-10,-6,1,0,-3,0,-1
1458285583064851,1,5,10,5,3,1,-1,0
1458285583065345,-1,-2,6,6,-1,2,-1,0
1458285583065345,-2,3,3,16,1,-1,-2,-1
1458285583079160,0,-3,-20,-17,6,2,1,0
1458285583079160,-2,-3,-11,-4,0,-1,0,-1
1458285583086388,-2,-3,4,-12,-7,-3,-2,-3
1458285583086388,-3,-6,-9,-1,-8,-4,-3,-3
1458285583102383,-2,2,3,2,-7,-2,-2,-2
1458285583102383,-2,-1,-15,-1,3,3,-1,-1
1458285583102825,-3,1,8,-10,-3,-2,-2,-1
1458285583102825,-1,3,-6,-4,-3,0,-1,0
1458285583124833,0,0,33,26,1,-3,-2,-1
1458285583124833,0,-5,-39,-23,-1,0,-1,1
1458285583125313,-1,-5,0,3,-8,-6,-3,-3
1458285583125313,-2,-5,0,-11,-5,-1,1,0
1458285583139185,-2,1,-5,0,3,2,-1,-1
1458285583139185,1,1,12,7,-2,-3,0,0
1458285583146728,-1,-2,1,12,6,-2,-1,0
1458285583146728,1,0,8,-2,-10,-7,-2,-1
1458285583161878,-2,-2,-20,-21,-8,-1,-2,0
1458285583161878,0,-5,-9,-1,-2,0,-2,-3
1458285583162878,-2,-3,-21,-10,-3,-1,-2,-1
1458285583162878,-1,-2,5,11,1,-2,-2,-2
1458285583184907,0,1,19,17,4,0,-1,-2
1458285583184907,-2,1,8,-16,-5,-2,0,-1
1458285583185391,-1,-5,-35,-16,-4,-2,1,0
1458285583185391,-3,-3,6,-3,-3,-2,-2,-2
1458285583199098,-1,2,5,0,-2,2,1,1
1458285583199098,0,-1,-5,4,0,-1,-1,-2
1458285583206669,2,2,19,16,0,2,-1,0
1458285583206669,0,-2,-6,-7,1,1,0,-2
1458285583222122,-3,-3,-27,-30,-5,-4,-4,-3
1458285583222122,-1,0,3,3,-3,-2,0,0
1458285583223073,-1,1,6,1,0,0,-1,-1
1458285583223073,2,0,9,12,-1,1,-1,2
1458285583244920,0,4,7,12,21,4,1,-1
1458285583244920,-1,1,10,1,2,2,0,0
1458285583245420,-4,-8,-19,-21,-8,-2,0,-2
1458285583245420,0,6,-5,-5,-5,-3,-1,-2
1458285583259081,-1,0,6,6,1,1,1,0
1458285583259081,1,1,-1,-5,-2,-1,-1,0
1458285583266588,1,2,13,16,9,-1,-1,0
1458285583266588,0,-2,-2,-18,1,1,-1,-1
1458285583282432,-2,-3,-7,0,-8,-5,-2,-2
1458285583282432,-2,-5,-18,-4,-7,-3,-1,-1
1458285583282933,1,4,4,-6,-1,0,-2,0
1458285583282933,-3,-6,11,16,3,0,-1,-2
1458285583304948,-3,-6,-31,-21,-10,-4,-2,-3
1458285583304948,-1,-3,2,-4,0,1,1,-1
1458285583305448,3,1,12,8,1,-1,1,-1
1458285583305448,-4,-2,-27,-6,-1,-1,-1,0
1458285583318958,-2,2,18,8,1,1,-2,-3
1458285583318958,0,-1,3,-14,-3,-3,0,-1
1458285583326463,3,-2,-22,-5,-3,1,1,0
1458285583326463,7,1,3,0,4,2,1,2
1458285583342033,-4,-1,8,2,-9,-3,-1,0
1458285583342033,-5,-4,11,17,1,-5,-4,-3
1458285583342975,-4,-4,3,10,-4,-4,-1,-3
1458285583342975,1,2,6,-13,0,0,0,0
1458285583364687,-1,-4,-24,-4,0,-2,-1,0
1458285583364687,-3,2,1,6,3,3,-1,-1
1458285583365626,-10,-5,-5,-4,1,-3,-4,-5
1458285583365626,2,-4,-10,-11,-15,-6,-2,1
1458285583379122,14,7,27,15,6,-1,-1,3
1458285583379122,-3,-1,18,-1,-1,0,-3,0
1458285583386685,-6,-2,-32,-1,-2,0,-1,-4
1458285583386685,-14,-8,-20,-11,-1,2,5,10
1458285583402135,14,3,-14,-10,2,0,-1,-13
1458285583402135,-5,-10,-2,-18,-3,-2,0,6
1458285583403130,7,6,39,32,5,3,3,5
1458285583403130,-7,7,-14,-21,-2,2,11,-5
1458285583424673,-2,1,14,20,8,-3,-9,-5
1458285583424673,-3,-10,-26,-30,-21,-6,-4,-14
1458285583425671,-9,-6,-3,-3,10,2,-5,-14
1458285583425671,4,-2,3,0,-15,-5,-6,6
1458285583447218,20,13,48,22,10,7,9,29
1458285583447218,12,15,7,4,8,1,6,15
1458285583448174,-14,-18,-29,-6,-20,-14,-10,-7
1458285583448174,-9,-18,-20,-32,-16,-5,-16,-38
1458285583462168,-6,-1,-2,0,-3,-9,-4,2
1458285583462168,14,24,54,37,13,7,1,-11
1458285583463168,-5,-15,-47,-32,-4,0,0,6
1458285583463168,0,8,32,18,7,-2,-3,18
1458285583485090,-17,-18,-18,-29,-21,-4,23,32
1458285583485090,-2,10,11,11,14,13,13,-25
1458285583492174,-14,-29,-47,-29,-22,-23,-16,-29
1458285583492174,21,14,-21,27,44,23,5,-7
1458285583507125,-13,-11,-4,-5,-24,-8,-18,-1
1458285583507125,4,16,27,16,-20,-5,11,37
1458285583508125,0,6,57,11,5,-5,-8,-45
1458285583508125,7,-6,-76,-16,-25,-17,-24,-1
1458285583522137,22,33,68,45,-4,3,-1,19
1458285583522137,-8,-29,-59,-69,5,10,8,-4
1458285583523151,-12,-2,15,16,-12,7,9,-22
1458285583523151,11,-3,18,-28,-32,-19,-7,47
1458285583544928,-10,0,-9,46,17,1,-18,-75
1458285583544928,-9,12,48,51,30,0,-8,0
1458285583545414,17,-1,-63,-41,11,19,65,127
1458285583545414,-27,-9,41,23,6,13,15,-107
1458285583566956,-10,-7,-46,-36,-52,-35,-78,-25
1458285583566956,7,-8,-37,-12,38,4,-24,-17
1458285583567956,1,15,28,-27,-17,-6,-33,-50
1458285583567956,-3,6,22,72,30,1,51,52
1458285583582464,8,-16,-11,-40,34,17,-2,45
1458285583582464,1,6,-4,25,-2,-7,-24,44
1458285583582945,13,14,19,16,-3,-9,-14,-29
1458285583582945,-9,-7,3,-9,12,5,12,-10
1458285583604956,-21,-19,-17,-47,3,-3,12,-62
1458285583604956,25,-3,-20,-26,-22,-19,2,-21
1458285583605456,-21,2,22,-34,-13,2,-20,-21
1458285583605456,6,8,12,74,17,11,8,5
1458285583627458,2,-8,-12,-55,-12,-7,22,38
1458285583627458,6,1,3,59,50,20,8,26
1458285583627959,-10,7,7,-14,-46,-15,0,11
1458285583627959,-9,-12,6,-16,-25,-20,-35,-56
1458285583642398,-25,2,20,81,42,20,29,19
1458285583642398,5,2,-7,-8,30,23,7,10
1458285583642836,46,15,4,-3,1,1,28,25
1458285583642836,7,7,-20,-70,-41,-21,-24,1
1458285583664732,-58,-32,-4,16,-13,-6,-12,-9
1458285583664732,-44,-12,3,10,-18,-2,5,-15
1458285583665697,28,3,7,55,41,10,-13,-34
1458285583665697,3,-17,6,-24,-14,-6,-5,34
1458285583687195,-31,1,-11,16,11,6,21,-8
1458285583687195,79,43,-10,-95,-98,-41,-12,-10
1458285583688137,-4,3,14,101,56,24,13,20
1458285583688137,13,-4,3,-24,15,-2,-18,27
1458285583702384,-59,0,0,79,15,8,-8,-33
1458285583702384,9,-1,-8,-15,27,8,10,-14
1458285583702822,-13,10,8,-27,-46,-20,-5,50
1458285583702822,21,-34,-8,-75,-4,-3,1,-41
1458285583724921,54,-53,-8,76,54,32,22,5
1458285583724921,0,-3,1,42,46,-3,-16,18
1458285583725359,25,91,2,27,51,3,-13,-13
1458285583725359,-98,-51,8,-30,2,6,2,29
1458285583747452,4,42,-1,22,64,30,17,30
1458285583747452,59,71,9,13,-32,-7,13,-18
1458285583747941,-27,-57,-8,26,1,-4,-21,-13
1458285583747941,58,61,9,13,-5,7,8,7
1458285583762005,78,-6,-5,-23,-47,-16,7,3
1458285583762005,-82,37,5,-33,-34,-19,-8,36
1458285583763006,-3,-16,18,4,31,15,10,17
1458285583763006,-9,29,8,-56,-16,-5,-27,-17
1458285583784522,-10,-18,-12,-33,-28,-7,12,-2
1458285583784522,-4,-59,-16,-43,-42,-8,12,-4
1458285583785509,-9,-16,-14,1,23,-4,-24,2
1458285583785509,26,91,-3,38,21,0,-16,-38
1458285583807061,-50,51,15,-57,-64,-22,-10,-16
1458285583807061,45,-61,-16,-51,53,3,1,0
1458285583808062,-108,50,28,54,-2,21,27,-13
1458285583808062,-19,-128,8,62,48,28,34,47
1458285583822087,101,33,-32,-119,-89,-73,-52,7
1458285583822087,6,61,28,127,79,73,27,-1
1458285583823087,84,-105,-40,-128,-39,5,-10,-16
1458285583823087,-74,48,-13,-24,-39,-24,-43,-50
1458285583844406,22,62,43,-118,-41,-5,17,-25
1458285583844406,-47,-127,-1,70,25,6,20,57
1458285583845394,83,61,7,-56,-10,-8,-6,-6
1458285583845394,38,-99,-20,101,38,10,8,34
1458285583866887,-99,-54,-27,-32,7,-5,-13,-34
1458285583866887,-64,-49,-1,-33,-61,-24,-26,-19
1458285583867875,-43,-27,-46,18,-6,-7,16,28
1458285583867875,127,26,5,-33,-6,-16,-14,-16
1458285583881954,-60,-9,17,-21,-54,0,28,-32
1458285583881954,85,-36,-16,61,17,-5,-31,26
1458285583882928,-9,93,23,72,21,-4,5,29
1458285583882928,-116,23,7,15,-23,-6,5,-25
1458285583904608,23,-50,-30,-61,-40,-16,-9,-1
1458285583904608,20,108,29,20,59,36,22,-24
1458285583905608,29,-128,1,19,-25,-2,6,13
1458285583905608,-43,-19,-24,-29,-30,-11,-11,-32
1458285583927412,38,-41,17,-12,44,16,2,10
1458285583927412,-116,-36,-59,37,-36,-24,4,-1
1458285583927897,31,77,-12,-8,-2,-4,18,48
1458285583927897,20,47,27,-51,12,17,-8,2
1458285583942390,-30,-5,9,52,2,2,-14,-52
1458285583942390,32,-64,-3,-89,-47,-22,-19,9
1458285583942838,22,11,-4,-13,9,2,-8,-11
1458285583942838,-20,63,33,35,27,18,40,24
1458285583965185,-29,2,-35,-77,-41,-24,-13,18
1458285583965185,-43,-101,-27,3,-31,-27,-56,-45
1458285583972235,-33,72,35,18,47,30,19,-6
1458285583972235,94,13,-40,-24,-40,-19,-5,36
1458285583987523,46,70,22,-49,-3,6,16,5
1458285583987523,-53,-24,21,72,68,20,-2,-37
1458285583994825,59,73,-2,-78,-119,-47,-24,-11
1458285583994825,-72,87,11,22,51,37,19,19
1458285584002272,83,-15,-39,-22,-33,-18,-9,35
1458285584002272,68,100,8,55,11,-6,15,-5
1458285584002787,-58,-128,25,32,44,1,-6,-36
1458285584002787,4,-128,-12,7,3,3,-8,4
1458285584024725,47,84,-7,-23,0,2,-10,22
1458285584024725,-6,51,16,-67,-50,-13,6,-5
1458285584025694,29,-73,-3,14,11,5,-4,-16
1458285584025694,-52,16,10,21,-11,3,12,-13
1458285584047471,73,25,25,49,32,10,-8,22
1458285584047471,16,-77,-43,-94,-51,-14,-11,-36
1458285584047990,-42,35,-1,45,-10,-4,13,18
1458285584047990,23,50,-4,-25,6,2,17,24
1458285584062059,36,-92,19,-3,3,-7,-18,4
1458285584062059,-57,55,13,67,41,16,6,-16
1458285584063061,-2,23,-35,-26,-20,-12,-2,-10
1458285584063061,-43,-83,-25,-64,-59,-34,-9,-13
1458285584084680,-64,33,44,127,87,42,18,1
1458285584084680,84,51,-2,-128,-57,-14,0,10
1458285584085692,-42,-124,-6,24,20,3,-4,-2
1458285584085692,98,69,46,66,42,13,9,12
1458285584107408,-101,-75,-21,36,-3,5,-4,-18
1458285584107408,19,22,-1,-22,-11,-2,5,10
1458285584107873,50,127,-17,-76,-39,-15,-6,11
1458285584107873,20,-14,-9,-21,-1,-3,-8,-2
1458285584121834,5,-47,3,37,18,9,19,-4
1458285584121834,-24,-3,-30,-29,-17,-9,-9,-3
1458285584129929,0,-2,27,-9,10,8,-6,-11
1458285584129929,-23,-31,-6,14,-16,-16,-24,-5
1458285584144591,-9,-2,-18,-2,13,2,6,-6
1458285584144591,-33,-18,18,5,-13,-6,7,6
1458285584145548,5,-14,-16,-31,-3,3,11,-6
1458285584145548,1,20,10,14,3,5,13,-9
1458285584167066,-16,7,-6,-1,-5,-4,-15,-3
1458285584167066,29,-13,9,2,7,1,0,10
1458285584168050,-6,37,7,5,-2,-2,-11,-3
1458285584168050,6,-8,-30,-11,-12,1,-1,1
1458285584190005,-3,-2,-5,6,16,7,-1,7
1458285584190005,-3,25,-9,-11,-15,-3,13,-4
1458285584191309,-12,-5,29,-4,6,-3,-7,-9
1458285584191309,-15,-19,-9,16,-14,-6,-2,-13
1458285584205046,11,13,2,-16,-15,-2,-2,8
1458285584205046,-10,10,19,3,6,4,-3,-3
1458285584206046,-12,-11,-11,-7,-1,1,-1,-6
1458285584206046,10,-11,12,7,10,-1,3,2
1458285584227433,2,30,-8,6,-1,-7,1,4
1458285584227433,-7,-8,-15,-36,-12,-6,-4,-6
1458285584227897,-11,-19,1,16,4,3,4,16
1458285584227897,-6,15,6,-10,1,-3,-12,-42
1458285584241459,3,9,2,21,7,3,-1,3
1458285584241459,-6,-5,7,-11,-4,-2,-5,-13
1458285584249508,5,-7,-7,-14,-2,2,-1,-10
1458285584249508,5,5,-4,-2,-4,-1,2,12
1458285584264907,-6,-1,-6,5,3,-2,0,-7
1458285584264907,0,-9,6,15,4,2,-7,7
1458285584265398,-2,8,6,17,-1,-2,-3,1
1458285584265398,0,2,15,17,1,-1,-4,3
1458285584287077,-2,-1,-15,-32,-3,-1,0,5
1458285584287077,-1,9,18,12,2,0,0,4
1458285584288026,-5,0,28,15,3,0,-4,-6
1458285584288026,1,-1,-14,-34,-10,-2,2,-2
1458285584301539,3,5,17,53,10,-2,1,0
1458285584301539,-6,1,-8,-20,-4,-5,3,-11
1458285584309648,-4,-5,-12,-15,-3,1,-2,-9
1458285584309648,3,-1,9,13,4,2,2,8
1458285584324581,-1,7,-4,-24,-8,-1,-1,4
1458285584324581,-3,-1,-6,5,-1,-2,2,0
1458285584325540,-2,-3,13,7,3,-2,1,1
1458285584325540,3,4,-11,3,5,1,2,7
1458285584347122,0,-3,-12,-17,-10,-3,1,1
1458285584347122,-1,-3,13,11,2,3,1,-2
1458285584348066,1,-1,-31,-29,-5,0,-3,1
1458285584348066,-1,-3,2,1,-4,-2,-2,4
1458285584377562,-6,-6,-30,-2,1,0,2,-3
1458285584377562,2,-2,11,3,-2,-2,-2,3
1458285584386400,0,-2,-6,-7,-11,-4,-2,-2
1458285584386400,1,-4,-3,-1,8,0,-3,2
1458285584387886,4,3,18,-2,2,-1,-2,2
1458285584387886,-2,2,6,24,3,1,2,-2
1458285584388384,-3,-3,-25,-19,-8,0,1,-2
1458285584388384,-5,-3,11,3,-4,-4,7,-2
1458285584406969,1,0,-4,-12,0,0,3,0
1458285584406969,0,-1,-1,8,-2,0,1,0
1458285584407912,-1,0,12,22,10,1,-4,-4
1458285584407912,0,-5,-10,-6,-4,-1,-9,1
1458285584421479,2,4,4,4,-2,3,-6,0
1458285584421479,-2,-4,2,-8,-3,0,-7,0
1458285584429943,-2,0,-4,12,4,1,-4,1
1458285584429943,2,3,-9,-3,1,0,-2,1
1458285584444814,3,4,10,36,12,0,-2,-2
1458285584444814,-2,-3,-2,-48,-15,-5,-2,-7
1458285584445314,1,1,-2,-15,-5,-2,0,-3
1458285584445314,-3,-2,-15,-20,-10,-1,-3,-1
1458285584467529,-3,0,9,11,6,1,-4,2
1458285584467529,-2,-3,-13,9,0,-2,-3,2
1458285584468544,-3,-3,9,4,-1,-4,0,-2
1458285584468544,-2,-8,7,2,-3,-2,-5,-5
1458285584490571,0,1,-5,-5,-1,0,2,1
1458285584490571,-1,2,10,19,8,4,1,-1
1458285584491009,-3,-3,6,-26,-9,-2,-2,-3
1458285584491009,-3,1,-23,-10,-7,-3,2,-1
1458285584504719,-2,1,22,13,2,-1,-1,-3
1458285584504719,-3,1,-25,-32,0,-1,-1,0
1458285584505219,-1,-2,-6,8,8,1,-1,0
1458285584505219,2,1,12,-6,-3,0,-1,2
1458285584527332,-6,-7,3,-15,-5,-5,-5,-6
1458285584527332,1,-3,-1,27,4,2,1,1
1458285584527831,-3,1,-2,-8,-4,0,0,-3
1458285584527831,-1,-3,-2,-5,-1,-1,0,-3
1458285584550303,2,-2,2,-6,0,2,-1,-2
1458285584550303,0,-4,-19,-9,-3,-1,-1,-1
1458285584551324,-2,-2,5,34,0,2,1,1
1458285584551324,0,2,9,-21,6,2,1,3
1458285584564663,-5,-2,2,-4,-8,-5,-3,-3
1458285584564663,-4,2,7,11,2,-2,-1,-2
1458285584572177,-1,-2,-12,-6,1,0,1,2
1458285584572177,-4,1,29,50,9,-2,-1,-3
1458285584587243,-1,0,-15,-16,-9,-2,3,0
1458285584587243,-1,-2,-2,-24,-5,-4,1,0
1458285584588182,0,-5,-9,8,1,0,0,-1
1458285584588182,2,-2,-6,-4,1,0,4,0
1458285584610725,3,2,-7,-5,2,-1,-4,0
1458285584610725,0,1,3,10,-4,1,6,0
1458285584611198,1,-3,-15,-37,1,0,4,0
1458285584611198,0,1,-15,13,1,0,-2,9
1458285584624735,-8,-5,0,-28,-7,-1,-8,-31
1458285584624735,0,8,4,63,13,1,-5,2
1458285584625737,-2,-5,-4,-32,-16,-8,-2,45
1458285584625737,-2,3,15,13,-3,-4,2,-16
1458285584647314,9,6,25,1,-2,-3,4,-6
1458285584647314,-3,-9,-25,6,-3,-3,-2,-10
1458285584648251,0,9,0,-15,1,0,-2,-13
1458285584648251,-1,-10,-20,-14,-3,-3,0,14
1458285584670232,1,-1,-9,8,4,5,4,11
1458285584670232,-2,-12,11,-34,-5,-1,-3,-5
1458285584671234,4,1,27,50,8,4,-2,5
1458285584671234,0,-8,-37,-36,-12,0,-4,-4
1458285584685218,-1,-1,-4,22,15,2,0,-3
1458285584685218,4,3,-18,-9,-5,0,-1,8
1458285584692256,-2,1,63,41,2,0,-1,-10
1458285584692256,-3,0,4,-18,-2,-4,-4,-8
1458285584707244,-3,-8,-72,-13,6,-3,4,6
1458285584707244,-4,-5,20,-16,-9,-3,0,3
1458285584708233,-6,0,1,23,1,-2,-1,-11
1458285584708233,-1,7,31,8,-2,-4,-3,-5
1458285584730316,0,-4,-12,-25,-3,-2,0,9
1458285584730316,-5,-6,1,-6,-8,-6,-3,0
1458285584731259,3,2,-4,-3,0,-1,0,9
1458285584731259,3,-5,-8,14,-1,1,1,6
1458285584744551,0,6,4,-21,0,1,-1,-32
1458285584744551,1,5,18,17,7,1,4,-2
1458285584745496,-3,-5,-4,2,1,-2,-2,-19
1458285584745496,2,3,-22,-11,3,2,2,4
1458285584767292,-1,5,55,35,-4,-5,-3,13
1458285584767292,3,3,-9,13,10,2,2,-1
1458285584767789,-3,-8,-24,-45,-10,-2,-2,-1
1458285584767789,1,-1,4,10,4,0,-1,5
1458285584790894,-2,-3,-30,-17,-6,-1,-4,-2
1458285584790894,-3,0,6,-7,-6,-3,-8,-4
1458285584791901,-1,-5,-7,11,-2,-3,-3,-5
1458285584791901,-3,-3,4,-12,-9,-4,-3,-8
1458285584804492,-1,0,19,1,14,3,0,5
1458285584804492,-2,-1,2,28,5,0,-1,-1
1458285584805493,0,2,-4,45,8,-1,-1,-3
1458285584805493,-2,-1,-10,-67,0,9,2,-6
1458285584827019,0,-2,3,21,-4,-3,0,7
1458285584827019,0,1,-5,-9,-6,-1,0,4
1458285584828020,2,-2,-3,-24,2,1,1,-4
1458285584828020,1,-3,-27,-2,-2,0,-1,1
1458285584850554,-1,4,21,1,-7,0,-1,4
1458285584850554,1,4,16,17,8,3,-1,-5
1458285584851055,-1,3,8,0,-6,-4,-2,-6
1458285584851055,-1,-3,-6,-23,-5,-4,1,-3
1458285584864735,-1,-5,-5,-14,-6,-1,0,7
1458285584864735,-3,-5,11,20,1,-2,-3,-3
1458285584865696,-1,-1,16,27,1,-2,-7,-1
1458285584865696,-1,0,-6,-35,-15,-4,-5,-2
1458285584887035,-2,-5,-15,8,-2,-4,0,-1
1458285584887035,-2,-1,-2,-28,-4,-3,-2,-5
1458285584888010,-1,-4,-15,-26,-7,-4,0,0
1458285584888010,0,2,11,59,25,7,0,2
1458285584910340,0,7,-2,-4,-1,-2,1,2
1458285584910340,-4,-6,-16,-2,-5,-4,4,0
1458285584911341,-1,-4,-13,-40,-3,1,2,-4
1458285584911341,-2,-4,14,41,-5,-4,-6,-6
1458285584924366,0,4,19,-13,2,-1,-5,1
1458285584924366,1,-5,-27,-22,2,-1,-5,1
1458285584932424,2,-4,-2,1,-5,-2,-1,-1
1458285584932424,0,1,10,8,1,-2,1,1
1458285584947435,-1,-4,0,5,-1,-1,0,0
1458285584947435,0,3,7,-7,-10,0,3,0
1458285584947871,-1,-2,-8,-5,11,5,3,-2
1458285584947871,0,-3,-11,-11,-9,-3,1,1
1458285584970404,-2,-2,10,35,3,-3,-4,-1
1458285584970404,0,1,2,-22,-13,-4,-3,-1
1458285584971426,4,2,-3,-18,-4,2,0,1
1458285584971426,-3,-3,8,11,11,4,1,0
1458285584984967,0,-4,24,0,1,0,-6,0
1458285584984967,-2,-4,-30,8,-7,-6,-4,-3
1458285584985468,2,13,9,10,4,1,-3,-1
1458285584985468,0,0,9,-20,-12,-2,4,12
1458285585007114,-6,-12,-7,-1,9,-1,2,-8
1458285585007114,0,5,6,12,3,1,-5,2
1458285585008115,6,-4,-8,-20,-11,-4,1,8
1458285585008115,0,0,3,17,4,-5,-1,-1
1458285585030281,-4,-4,-12,-4,-9,-2,-5,0
1458285585030281,-4,-1,5,-5,5,3,4,-1
1458285585030281,-6,-9,-18,-16,-5,-1,1,-11
1458285585030281,5,6,-1,-33,-8,-5,-6,-4
1458285585044894,-4,4,8,41,2,1,10,9
1458285585044894,-1,-8,-8,-7,-2,-1,-3,-12
1458285585045329,-2,0,8,-2,-6,-3,-3,-2
1458285585045329,3,-1,0,-6,-9,-4,-10,-16
1458285585067262,7,2,14,6,11,0,-8,-8
1458285585067262,5,2,-34,-27,14,6,2,20
1458285585068244,-2,2,9,14,9,1,-2,-15
1458285585068244,-5,-5,-22,-6,-3,0,-1,-3
1458285585091168,-1,4,-1,10,-4,0,2,-5
1458285585091168,-4,-1,23,7,-1,6,6,0
1458285585091681,4,2,-12,-6,16,10,10,9
1458285585091681,-6,5,7,17,2,0,8,3
1458285585104209,-7,-14,-7,-42,-35,-9,-6,-7
1458285585104209,2,-2,0,14,42,6,6,3
1458285585112215,4,-7,-3,15,-12,-8,-8,3
1458285585112215,5,12,31,36,8,3,-1,3
1458285585127268,-7,-3,-42,-26,-6,2,-3,8
1458285585127268,9,-5,4,-27,-24,-16,-20,-17
1458285585128216,-22,11,21,21,5,4,0,-9
1458285585128216,-1,-12,-7,-1,-4,-2,-5,-5
1458285585150597,25,1,18,2,6,-3,19,39
1458285585150597,5,0,-32,-30,-30,-4,-14,-26
1458285585151092,-8,0,-6,0,22,1,-11,-9
1458285585151092,-10,3,22,2,-12,-5,-2,-9
1458285585164645,0,13,7,9,18,4,6,1
1458285585164645,1,-8,0,-5,-15,-4,4,2
1458285585172198,-5,-6,34,8,0,-1,5,11
1458285585172198,0,-3,-24,-21,6,1,14,11
1458285585187301,-5,-3,11,19,-9,4,2,-30
1458285585187301,-9,-6,-32,-1,1,1,5,28
1458285585188246,12,7,24,22,-1,-6,-17,-22
1458285585188246,21,17,38,3,16,1,-18,10
1458285585210861,-26,-26,-86,-19,-6,-11,-13,-20
1458285585210861,1,4,16,13,14,10,-9,-39
1458285585211866,-6,-8,-18,-23,-16,-5,4,29
1458285585211866,10,15,11,23,21,6,4,0
1458285585224350,-3,-7,11,-19,5,-2,-10,-2
1458285585224350,-4,-6,13,29,4,5,26,35
1458285585232293,-11,-16,-21,0,-8,-6,25,1
1458285585232293,-1,-4,-17,-6,3,-4,-17,-29
1458285585247460,3,5,13,-9,-5,-3,-34,-15
1458285585247460,-4,12,41,29,-12,-9,9,14
1458285585247937,3,2,-38,-55,-2,15,-1,-20
1458285585247937,0,-17,-23,2,6,-6,25,34
1458285585270495,-2,4,-1,11,16,8,-3,-3
1458285585270495,5,6,23,35,18,9,-5,52
1458285585270980,3,5,12,-3,-13,-7,-1,-96
1458285585270980,-19,-8,4,-11,-41,-16,-10,-11
1458285585283988,-4,-15,-60,-7,-3,-1,-11,19
1458285585283988,40,19,29,-37,-3,-8,-3,3
1458285585292491,-5,7,-3,3,23,15,47,80
1458285585292491,-6,-22,-10,6,-6,5,29,-29
1458285585307510,-27,-10,21,-13,1,-7,-35,-43
1458285585307510,-15,3,-17,-21,-25,-11,-36,-25
1458285585308009,23,12,4,13,5,-1,-19,1
1458285585308009,-22,-15,-10,-24,-2,1,10,-7
1458285585329568,5,0,2,23,1,-1,22,17
1458285585329568,8,1,-4,-27,-18,-3,10,29
1458285585331328,-9,-4,6,67,44,3,3,33
1458285585331328,-1,8,-1,20,33,8,-28,-47
1458285585343894,11,-2,4,-33,-22,-5,-6,41
1458285585343894,-18,-5,-3,41,27,3,-8,-32
1458285585352162,12,0,-11,-17,-49,-19,-9,3
1458285585352162,13,12,-10,8,23,13,17,20
1458285585367182,-10,-3,-4,-25,-8,-3,10,-17
1458285585367182,-5,2,3,40,20,-1,1,14
1458285585368162,21,-10,-4,-9,5,7,9,-4
1458285585368162,-47,2,11,9,-5,-4,-29,10
1458285585389769,20,-2,0,-15,-4,-4,6,-18
1458285585389769,-17,-17,-18,-30,-17,0,3,-44
1458285585390952,-9,-8,-5,-11,-6,1,-16,-12
1458285585390952,3,9,6,-24,-4,-4,-13,20
1458285585404233,5,17,21,78,14,5,4,-19
1458285585404233,-1,-10,-7,4,18,2,-2,30
1458285585412284,-3,9,-12,-28,-24,-8,-11,17
1458285585412284,1,-5,9,6,14,2,3,-5
1458285585427294,2,-4,3,44,22,8,26,29
1458285585427294,-24,2,-3,-66,-63,-17,17,-58
1458285585428242,37,0,-9,12,58,1,-40,10
1458285585428242,-17,3,7,-11,-2,-4,-27,22
1458285585450905,24,37,-1,-2,-30,-9,-2,-32
1458285585450905,-18,-45,6,-30,38,16,14,7
1458285585451920,-16,1,-2,-23,-5,8,23,-34
1458285585451920,7,-6,-14,3,-36,-18,11,1
1458285585472936,30,9,3,3,10,-2,-35,54
1458285585472936,-24,6,-1,-37,-45,-8,5,-4
1458285585473879,-39,1,-7,-80,-70,-26,-14,-9
1458285585473879,29,-1,11,43,59,21,-19,-18
1458285585487124,-59,-12,0,12,5,10,11,-38
1458285585487124,58,9,-17,-23,-39,-21,-5,51
1458285585488107,-16,-33,-6,27,-2,-5,-3,-31
1458285585488107,-23,20,-3,-15,-28,-18,-7,14
1458285585510246,17,-1,5,-23,16,11,25,-10
1458285585510246,2,3,-3,-32,2,-14,-39,19
1458285585511247,-5,-3,6,66,52,23,11,-12
1458285585511247,3,-16,-22,16,-62,-18,-3,-14
1458285585532781,-6,12,21,23,4,5,10,17
1458285585532781,-9,2,-11,13,40,7,13,-34
1458285585533722,-9,-3,-6,30,-11,-12,-10,11
1458285585533722,-33,20,-13,-76,-50,-11,21,-4
1458285585547459,-23,-54,-7,28,5,-6,-15,0
1458285585547459,40,17,4,52,-12,-2,-19,-16
1458285585547950,57,42,-6,-42,-14,-1,-11,-20
1458285585547950,-27,-50,1,-3,26,7,18,24
1458285585569697,-18,3,-5,-89,-29,-10,-12,6
1458285585569697,-44,-15,4,37,35,16,0,-23
1458285585570951,-86,-4,-7,34,34,15,33,21
1458285585570951,68,-4,5,-92,-16,-5,-8,-8
1458285585592905,-22,6,5,-17,-19,-2,-16,-3
1458285585592905,56,-3,-7,-52,18,4,7,4
1458285585593848,2,14,16,8,-27,-10,12,14
1458285585593848,58,24,-14,-43,-9,-9,-6,-1
1458285585607433,-54,-14,1,116,27,15,21,23
1458285585607433,-63,-32,0,1,5,-3,-16,-36
1458285585607873,-47,-62,-26,30,-8,0,20,13
1458285585607873,23,6,5,60,-9,2,-10,10
1458285585631036,79,31,-8,-64,-58,-26,-27,-6
1458285585631036,-1,25,7,127,56,16,10,-16
1458285585631994,29,15,8,-58,-11,-5,-7,-7
1458285585631994,-52,-8,-5,122,18,5,-6,11
1458285585652890,-46,-38,-7,6,14,1,-3,-13
1458285585652890,-77,-28,-14,-118,-81,-22,35,-2
1458285585653844,15,8,20,89,57,5,-61,-23
1458285585653844,-51,-13,-18,23,-2,2,16,-32
1458285585667372,53,19,9,-46,-8,8,-2,26
1458285585667372,36,0,-6,6,-39,-20,-16,-1
1458285585667860,-60,-43,-17,-110,-6,-7,8,6
1458285585667860,-9,17,20,20,17,0,-6,-14
1458285585689908,8,-35,-24,-17,7,8,30,6
1458285585689908,-34,2,-12,-55,-7,-8,-15,-23
1458285585691035,41,4,19,4,-44,-9,-26,23
1458285585691035,83,26,23,95,71,26,-7,20
1458285585712882,-96,-15,-49,-100,-57,-19,12,-36
1458285585712882,74,-7,19,19,45,17,15,40
1458285585713823,-60,1,-14,-6,-2,4,26,7
1458285585713823,19,-13,19,-81,-15,-15,-23,20
1458285585727351,76,67,3,-12,13,-1,15,0
1458285585727351,-100,-18,-22,41,4,1,-7,-20
1458285585727833,81,25,2,33,11,4,-18,-7
1458285585727833,-50,-15,4,-47,-30,2,15,-38
1458285585750386,67,57,12,47,10,-3,29,36
1458285585750386,49,19,3,-24,2,0,-11,5
1458285585751390,74,22,4,25,26,2,7,63
1458285585751390,32,31,-12,13,49,10,-3,-9
1458285585772795,66,27,35,36,39,14,20,-28
1458285585772795,-95,-17,4,-16,28,13,13,6
1458285585773795,30,-71,-26,-128,-107,-47,-46,-70
1458285585773795,50,30,-26,85,76,35,37,49
1458285585787121,-62,-87,2,15,28,6,0,7
1458285585787121,20,42,26,67,-21,-4,12,-27
1458285585788089,-13,1,27,6,-9,-12,-31,33
1458285585788089,-98,-25,-5,-35,-25,-5,-11,-50
1458285585810355,104,19,-7,-86,-36,-17,-9,10
1458285585810355,115,12,-10,67,50,20,-7,14
1458285585811356,-95,-16,2,-3,-6,3,16,-41
1458285585811356,-83,-7,15,-2,-25,-12,10,15
1458285585832875,35,-24,-9,-4,5,-1,-17,16
1458285585832875,69,4,-14,-128,-128,-50,6,-18
1458285585833876,-11,104,24,116,125,95,57,42
1458285585833876,-22,-81,-11,-20,-78,-29,-33,9
1458285585847388,-128,99,30,-12,55,18,-22,-47
1458285585847388,53,16,-32,-86,-56,-22,-15,16
1458285585847889,-69,6,6,76,37,2,13,-40
1458285585847889,58,-35,9,-29,-21,0,15,5
1458285585869553,-1,6,-26,8,-29,-17,-15,8
1458285585869553,-48,54,45,45,29,8,-1,-2
1458285585871277,114,30,-3,-67,-26,-14,11,41
1458285585871277,29,24,12,-5,-6,-8,-4,-6
1458285585893021,1,-8,9,25,-8,-5,-21,-37
1458285585893021,-26,-73,-12,39,35,21,15,27
1458285585893519,48,-48,-19,-23,-32,-11,-3,46
1458285585893519,12,10,-5,-9,6,2,6,3
1458285585907029,-2,-93,-20,8,-13,-12,-10,0
1458285585907029,-29,27,13,5,-26,-10,-39,-24
1458285585908041,-36,-17,-2,-38,-9,0,19,-26
1458285585908041,-1,2,-62,-44,-24,2,4,-9
1458285585930063,-8,15,25,61,46,19,15,2
1458285585930063,-16,-23,51,32,3,6,-5,7
1458285585930063,-8,-23,-47,16,1,-13,-15,-7
1458285585930063,5,35,12,0,-4,-6,1,-4
1458285585953016,-7,-14,-25,-23,-16,4,0,5
1458285585953016,-4,-18,-12,6,15,-2,-10,12
1458285585953974,6,17,25,-1,-18,-15,-20,-13
1458285585953974,-8,5,-5,-4,6,-2,-3,-9
1458285585967485,-4,-23,11,11,-6,7,4,2
1458285585967485,25,51,-4,19,18,6,7,9
1458285585967985,-19,-3,-12,-4,-6,3,2,-8
1458285585967985,1,1,9,-17,-1,5,19,6
1458285585989550,-12,-37,3,4,-7,-10,-10,5
1458285585989550,-10,27,-15,23,16,10,11,-3
1458285585997063,18,-26,-5,-39,-5,-8,-6,-5
1458285585997063,3,22,12,0,-4,-4,-13,-1
1458285586013099,0,8,28,22,13,6,-9,9
1458285586013099,-9,-6,-13,-24,-22,-7,-8,-1
1458285586013591,-15,3,22,29,12,2,-3,-3
1458285586013591,3,-19,-1,-4,7,2,1,1
1458285586026599,1,18,10,-5,-9,0,10,-1
1458285586026599,-6,-7,-13,-12,-3,-2,1,0
1458285586034621,-11,-12,-2,-9,-8,-2,-2,-4
1458285586034621,3,2,-7,-1,-4,0,5,-1
1458285586049675,-5,7,-3,-10,-11,-5,-1,-1
1458285586049675,4,-17,-2,11,14,8,3,3
1458285586051058,1,4,-18,-15,-12,-3,4,-6
1458285586051058,-1,0,18,20,8,-1,-5,-4
1458285586072801,2,5,-16,-8,-7,-6,-3,0
1458285586072801,3,-9,13,4,6,1,0,-1
1458285586073800,-3,6,-12,3,2,2,-5,-2
1458285586073800,-4,-5,-1,0,-5,-2,-3,0
1458285586086750,-2,0,-16,-7,-4,-3,-2,-1
1458285586086750,0,-1,-10,3,6,-1,5,-1
1458285586094684,-5,5,-5,-26,-19,-6,-4,-7
1458285586094684,-2,-6,13,-6,11,2,-6,-2
1458285586110696,0,6,6,19,6,4,3,2
1458285586110696,-2,-3,-16,13,5,4,-1,1
1458285586111196,-2,6,31,12,-1,-2,-1,-1
1458285586111196,3,-3,-11,-11,-3,1,-1,1
1458285586132773,-2,3,3,-18,-7,-5,-2,-6
1458285586132773,0,-6,-11,1,5,2,0,2
1458285586133713,-2,1,-12,-2,1,-3,1,-1
1458285586133713,-1,3,32,17,-4,-2,-1,-2
1458285586146711,-3,-6,-26,-28,-7,-2,-4,-2
1458285586146711,0,-5,9,20,5,0,-1,1
1458285586154713,5,3,11,13,0,0,-1,12
1458285586154713,-1,0,-37,-21,5,1,-6,-16
1458285586169709,-5,-4,-34,10,-12,-5,-4,0
1458285586169709,-3,-4,-2,-25,3,-3,3,1
1458285586171079,-4,4,21,10,0,-1,-3,-4
1458285586171079,-3,-8,-51,-23,-2,0,-2,7
1458285586193174,2,3,23,-12,-3,-1,-2,0
1458285586193174,1,-1,40,21,-1,0,-2,-6
1458285586194675,3,-1,-10,-1,6,-2,1,0
1458285586194675,-1,-11,-49,-11,-21,-7,-2,1
1458285586206691,1,-1,1,23,8,-2,5,1
1458285586206691,1,-1,-8,-36,-4,-3,0,3
1458285586215699,-1,5,38,18,2,0,-1,-2
1458285586215699,-2,0,29,40,7,-1,-4,-3
1458285586229268,-1,1,-12,-52,-11,-22,-6,34
1458285586229268,-10,-2,11,11,-1,-9,-10,-36
1458285586238223,2,-1,-37,-17,-5,0,7,0
1458285586238223,2,3,14,-15,-2,9,4,-3
1458285586253015,-1,0,9,31,8,14,-1,-6
1458285586253015,2,-4,-1,1,3,8,-2,19
1458285586254478,-5,-5,-52,-19,-3,-5,-4,0
1458285586254478,-3,-1,2,6,3,-1,-2,5
1458285586266607,-1,-3,24,-12,-8,-5,-5,-36
1458285586266607,0,-3,-13,12,10,6,-7,4
1458285586275866,-5,-4,12,5,-8,-5,-6,-8
1458285586275866,5,-1,-3,-18,-2,-3,3,11
1458285586290377,1,-3,-2,20,6,1,2,4
1458285586290377,-1,-2,-21,-59,-12,-4,2,2
1458285586292083,0,1,16,27,10,6,1,27
1458285586292083,-13,-2,14,12,-4,-3,-12,-50
1458285586313234,-2,-2,-5,-16,-12,-1,0,-7
1458285586313234,0,0,-8,28,22,4,2,0
1458285586314781,-1,0,2,-16,-6,-4,-3,4
1458285586314781,-2,0,21,11,2,-1,4,0
1458285586326831,2,5,-9,-4,1,2,5,2
1458285586326831,2,5,2,17,-4,0,4,7
1458285586335834,-5,-10,-19,-27,-5,-2,-1,-7
1458285586335834,-2,-1,-7,14,1,2,0,-4
1458285586350262,-2,-3,9,-10,-4,-1,0,1
1458285586350262,3,-3,-10,22,-5,-5,1,15
1458285586352540,4,6,20,1,10,5,1,1
1458285586352540,-6,-7,-4,-3,-10,-7,-3,23
1458285586373076,-6,4,3,18,9,3,-2,-17
1458285586373076,2,3,-9,-23,-8,-1,-9,3
1458285586374579,-5,2,13,35,-10,-6,2,-45
1458285586374579,1,-2,-10,-5,3,0,1,-4
1458285586395699,-2,-2,-6,-11,3,0,3,-3
1458285586395699,2,-6,-9,-2,-2,-1,3,31
1458285586397261,-1,1,8,-18,-6,1,-4,-8
1458285586397261,6,3,25,7,-2,-1,2,16
1458285586410498,-1,-5,1,25,0,-1,-2,-2
1458285586410498,-4,0,-23,-3,-5,-2,2,-16
1458285586412015,-1,-6,-10,-28,2,-2,-2,4
1458285586412015,-4,-3,16,39,-17,-4,-7,-4
1458285586434044,-2,3,-14,-19,27,9,-2,9
1458285586434044,-4,-2,26,6,5,2,-1,-14
1458285586439535,-2,2,8,-12,8,3,0,4
1458285586439535,2,4,0,30,3,1,3,3
1458285586449274,-3,0,9,44,-7,-5,-1,-5
1458285586449274,-1,2,-10,-33,-6,0,1,-6
1458285586449774,3,20,66,57,3,0,-2,3
1458285586449774,1,-29,-89,-75,-7,-1,2,7
1458285586470247,13,-8,6,-16,-7,0,6,79
1458285586470247,-13,-5,-9,9,0,-4,-12,-98
1458285586472243,8,3,-8,-25,-1,-2,-2,22
1458285586472243,-2,6,18,17,2,-6,-6,-37
1458285586484267,7,-1,-13,-19,-6,-1,-1,4
1458285586484267,2,-1,13,10,-1,-2,-1,12
1458285586492286,-6,-8,-4,42,-7,-5,-5,-6
1458285586492286,-1,10,2,-20,6,2,3,8
1458285586507486,-10,-11,-36,-31,-10,-3,0,-14
1458285586507486,-2,5,21,-13,0,-1,4,14
1458285586507986,-7,-2,-4,10,-1,1,0,-14
1458285586507986,-3,0,11,6,5,1,1,16
1458285586521537,-3,5,20,28,0,-1,-5,-17
1458285586521537,1,-2,-12,-34,-7,-4,-4,9
1458285586529044,-3,-7,-4,-6,-1,-4,-5,2
1458285586529044,-4,-3,28,18,-4,-2,-5,-1
1458285586544089,-5,0,-17,-21,-8,-4,-5,-16
1458285586544089,0,0,30,35,3,-6,-5,8
1458285586552368,-2,-6,-44,-22,20,6,2,0
1458285586552368,-2,1,5,-17,-4,-4,-4,-3
1458285586567511,-1,3,9,6,0,-1,-2,-10
1458285586567511,1,0,-13,-8,-8,-2,0,13
1458285586568019,-7,-7,20,6,-13,-4,-2,-7
1458285586568019,-1,-4,-25,-15,8,3,0,0
1458285586589837,-1,0,4,13,-3,-1,-2,-2
1458285586589837,3,-1,-13,1,-3,0,1,6
1458285586590282,1,1,17,-9,-6,-7,-4,-4
1458285586590282,0,0,-16,-12,3,-4,-3,-3
1458285586603957,-3,-3,-1,-3,-7,-4,-4,-7
1458285586603957,-1,-4,-10,8,7,2,2,2
1458285586612464,-1,-2,-7,-6,-6,-3,-1,-2
1458285586612464,2,2,21,13,-9,-3,0,7
1458285586627519,-1,-2,-5,-19,2,-2,-3,-3
1458285586627519,-1,-1,-3,-11,-2,0,0,3
1458285586627957,-1,-1,-21,-12,-10,-2,0,3
1458285586627957,2,1,9,2,12,4,3,0
1458285586641471,4,1,3,17,14,3,3,-1
1458285586641471,-4,-3,12,6,-3,-3,-1,-3
1458285586649037,2,-1,-14,-10,3,2,0,3
1458285586649037,3,2,-22,-18,0,0,0,1
1458285586664305,-3,-1,27,20,-4,-2,-3,-5
1458285586664305,-4,-6,-12,-14,1,2,-1,1
1458285586672501,-5,-1,-9,1,-4,0,-4,-4
1458285586672501,-2,-2,-14,-10,-1,-1,-3,-2
1458285586687498,-1,1,9,-3,-1,1,0,-3
1458285586687498,3,3,-12,12,-6,-3,-2,-2
1458285586687998,1,0,-8,-31,-9,1,-1,0
1458285586687998,-3,-2,11,22,11,2,-1,-3
1458285586701841,-2,-1,-8,-10,-4,-2,-2,-2
1458285586701841,-2,-1,24,16,2,-1,1,2
1458285586709350,0,-2,-19,-13,-16,-7,3,-2
1458285586709350,-2,1,10,18,30,5,4,1
1458285586724359,7,6,-14,-16,-2,2,1,2
1458285586724359,-4,-6,11,3,0,-1,-2,2
1458285586732462,5,2,20,27,3,-1,-2,2
1458285586732462,0,-1,-35,-30,-19,-8,-4,-1
1458285586747499,-5,-3,-16,-8,-4,-4,-3,-1
1458285586747499,4,6,5,2,6,5,1,4
1458285586747957,-6,-1,-5,-2,1,1,-1,1
1458285586747957,-3,-3,7,-1,-2,1,0,3
1458285586761591,-4,0,7,-6,0,2,-2,-3
1458285586761591,-3,-1,-5,-10,-11,-4,1,-4
1458285586769129,1,0,-19,0,12,0,3,3
1458285586769129,3,6,39,11,9,2,1,0
1458285586784052,-2,-4,-4,7,2,-2,-11,-4
1458285586784052,-3,-3,-17,-3,4,-3,-7,-6
1458285586792545,-1,-1,-9,-12,-5,-2,-1,-3
1458285586792545,-6,-1,-4,-12,-16,0,0,1
1458285586807045,3,3,27,18,4,2,9,8
1458285586807045,-2,-3,-16,-14,-3,-3,-1,-6
1458285586808045,-2,-2,4,-10,-8,-4,7,8
1458285586808045,4,1,6,1,1,-1,0,-5
1458285586823045,-3,4,14,6,0,1,4,-4
1458285586823045,-1,0,-27,-10,6,0,2,-5
1458285586830554,1,0,-9,-5,-19,-5,-8,-3
1458285586830554,-1,-4,-8,2,7,-4,-9,-1
1458285586844064,13,5,2,0,-1,-2,-3,1
1458285586844064,-15,-5,2,4,-1,-2,-2,-3
1458285586852073,-3,-3,10,10,6,-3,-2,-7
1458285586852073,-2,-3,12,5,-8,0,0,-1
1458285586875598,-2,-2,-20,-17,-5,0,-2,-3
1458285586875598,9,0,1,3,-8,-2,8,10
1458285586876083,-8,0,-7,-5,10,8,4,-4
1458285586876083,3,1,0,-10,-11,-6,-8,-3
1458285586881484,-3,-3,7,6,-6,-2,-10,-7
1458285586881484,0,0,-4,-18,-4,-5,-14,-3
1458285586889491,1,-2,6,25,11,5,5,3
1458285586889491,3,1,-6,3,-10,-1,10,4
1458285586904006,-7,-6,-28,-7,-5,-5,-6,3
1458285586904006,0,2,37,3,-1,2,1,1
1458285586912512,13,8,22,13,22,12,10,-3
1458285586912512,-11,-7,-44,-14,-7,-6,-11,3
1458285586927525,-17,-16,-32,-25,-19,-14,-7,-15
1458285586927525,6,5,8,18,6,-1,-7,-7
1458285586928023,5,2,7,-5,-6,-5,-2,8
1458285586928023,2,4,23,13,-2,3,15,10
1458285586941879,75,8,15,1,8,2,-1,-2
1458285586941879,64,-10,-19,-8,-6,-2,-5,1
1458285586949386,38,-6,-18,-8,0,0,-3,-16
1458285586949386,3,-7,-12,-14,-5,-1,19,24
1458285586964424,-33,-6,-23,0,5,0,-6,-19
1458285586964424,-32,6,7,-1,7,-2,1,-20
1458285586972366,-33,-5,16,9,-19,-6,-16,-8
1458285586972366,-29,0,7,-15,-7,-9,-21,-8
1458285586987415,-19,2,-4,-6,-23,-3,12,23
1458285586987415,-15,3,-18,14,37,20,20,32
1458285586987856,-21,-5,-14,3,6,-6,-5,-29
1458285586987856,-5,-4,25,-20,-16,-8,-3,-6
1458285587001871,-17,2,6,24,28,14,44,-9
1458285587001871,-3,5,32,13,-11,-1,2,-7
1458285587009373,-8,-9,-36,-34,-6,-14,-73,-20
1458285587009373,6,2,8,22,11,0,-17,-15
1458285587024383,-10,-8,-5,-3,-22,-12,-17,1
1458285587024383,-7,0,-8,12,22,10,15,11
1458285587032425,-3,-3,2,6,-1,6,38,30
1458285587032425,8,1,0,-5,0,-3,10,-17
1458285587046448,4,8,20,5,-2,-3,-30,-26
1458285587046448,-8,-5,-7,9,-9,1,20,28
1458285587054764,-6,-12,-18,-4,22,6,8,-22
1458285587054764,22,23,38,10,-3,-6,-25,62
1458285587061769,-8,-19,-71,-35,-24,-6,22,2
1458285587061769,-3,3,17,24,29,6,-8,-16
1458285587069774,-5,2,-9,40,3,-3,0,22
1458285587069774,5,1,7,5,11,16,39,-7
1458285587084687,-6,-3,18,1,12,0,3,-6
1458285587084687,9,2,2,10,-25,-10,-14,-9
1458285587092270,-5,-1,-5,-43,-38,-15,-31,18
1458285587092270,8,7,-17,12,17,11,-3,25
1458285587106749,7,2,5,19,3,-6,1,0
1458285587106749,-4,-2,-24,-50,-22,-3,-10,-5
1458285587114754,1,6,27,-9,-3,2,30,21
1458285587114754,-12,-13,-25,-3,-16,-16,8,-46
1458285587121758,17,14,17,30,20,10,-22,-8
1458285587121758,0,-3,-12,-19,-2,-3,-4,-21
1458285587129264,-6,-2,13,16,-3,-6,-5,6
1458285587129264,7,-4,-4,-17,6,3,-7,5
1458285587144251,-17,-8,-6,-13,-3,4,21,34
1458285587144251,-21,-14,0,4,-16,-10,-21,-38
1458285587152271,26,19,14,-4,-5,3,2,8
1458285587152271,-4,-16,-11,-25,-33,-8,19,9
1458285587166627,-3,-1,5,55,57,17,22,3
1458285587166627,7,8,-6,-38,-17,-8,-9,57
1458285587174847,-25,-17,-14,-4,1,3,40,-51
1458285587174847,14,8,0,11,6,1,-29,-15
1458285587189543,11,-1,20,-29,-48,-17,-24,-1
1458285587189543,5,-7,5,-17,5,-5,0,4
1458285587197563,-3,11,0,-13,31,2,-17,4
1458285587197563,-13,-13,5,56,29,8,12,16
1458285587204308,6,8,12,-8,-15,-7,-14,-3
1458285587204308,0,1,0,0,10,10,31,13
1458285587212205,19,3,-5,-59,-56,-13,-3,-38
1458285587212205,-46,-20,1,-17,32,15,-9,0
1458285587226659,3,-3,3,-20,-21,-13,-9,4
1458285587226659,9,-11,14,40,21,5,-6,-13
1458285587235022,-12,3,3,29,4,-2,1,-14
1458285587235022,-4,4,-6,-12,-12,-2,-10,0
1458285587251143,0,4,-4,-39,-19,-4,17,1
1458285587251143,7,-14,-8,6,-5,11,15,13
1458285587252143,16,-4,-10,42,9,-1,11,49
1458285587252143,4,22,5,14,9,-4,-30,-36
1458285587264160,5,-22,10,-19,4,4,-7,-40
1458285587264160,32,13,20,28,-17,-19,-32,-1
1458285587272245,-22,-3,9,3,7,10,12,13
1458285587272245,-25,4,-9,-15,-13,-13,5,-31
1458285587286725,-20,12,0,-2,0,4,-12,40
1458285587286725,-6,-9,-6,11,-8,-4,7,-27
1458285587295172,3,-4,-8,-18,1,1,32,34
1458285587295172,2,-13,-10,-33,-10,-7,-3,-25
1458285587310220,28,52,13,68,71,13,-13,17
1458285587310220,34,-12,-11,-30,-29,-15,-16,-7
1458285587310220,3,-17,-13,-8,-7,-6,-10,-3
1458285587310220,-79,-22,-10,5,6,4,1,-20
1458285587333099,-2,12,-13,-76,-32,-11,11,11
1458285587333099,-26,-27,-10,23,11,9,-6,-17
1458285587340606,29,17,6,7,0,4,2,-6
1458285587340606,33,33,3,7,-9,-7,1,22
1458285587355687,39,-17,3,38,24,14,39,26
1458285587355687,-33,13,-5,-47,-17,-13,-40,-33
1458285587357154,-41,-48,-4,13,11,6,7,-9
1458285587357154,16,-29,-14,-21,-16,-18,-40,-20
1458285587378204,-14,23,0,-15,9,2,-13,-5
1458285587378204,54,10,4,-6,15,-2,21,20
1458285587379645,-38,19,2,3,-3,3,-19,-21
1458285587379645,3,-6,-7,28,7,-3,8,-14
1458285587393148,-7,21,-2,5,8,11,16,8
1458285587393148,-16,-49,-7,-12,-30,-15,17,35
1458285587394678,26,18,-5,6,17,3,-31,-14
1458285587394678,-28,31,8,-36,8,13,27,5
1458285587415752,1,-15,-4,-47,-38,-19,-37,6
1458285587415752,2,-38,-5,70,12,-4,-13,-21
1458285587417279,-52,-48,1,-3,-3,13,8,9
1458285587417279,60,-18,-4,19,0,3,-4,19
1458285587438225,12,82,-1,18,31,-2,5,-2
1458285587438225,-40,-3,-2,-95,-22,-2,8,-26
1458285587439708,46,94,18,64,12,-4,29,34
1458285587439708,10,-87,-8,4,-8,0,-33,-1
1458285587452237,0,-70,-11,24,-13,-5,-9,-19
1458285587452237,-19,-5,-6,-11,-6,-6,-9,-1
1458285587459304,4,29,-3,-37,-21,-13,-42,-53
1458285587459304,-87,-35,-1,-38,-10,-2,33,0
1458285587475371,5,8,9,-18,-32,-6,-22,-19
1458285587475371,59,-10,-13,10,-16,5,32,4
1458285587477370,102,90,-4,28,44,6,-3,55
1458285587477370,31,-41,-7,15,25,5,-9,5
1458285587497927,-50,18,19,-29,-36,-7,18,-10
1458285587497927,-2,-52,12,15,19,12,4,8
1458285587499427,-43,4,-19,21,-7,-10,-50,-30
1458285587499427,-17,48,9,-46,-68,-17,-7,-14
1458285587513977,-13,-110,-1,74,67,23,17,20
1458285587513977,15,64,-1,-53,-1,-4,18,20
1458285587518980,36,52,18,18,30,8,16,22
1458285587518980,-29,9,-1,-21,-2,-4,-16,-31
1458285587536844,80,-36,-3,39,-14,-6,-10,-3
1458285587536844,-119,97,6,-1,9,11,15,19
1458285587538342,48,-128,-13,-11,-17,-20,-1,29
1458285587538342,4,56,-38,-12,-22,-6,-2,-11
1458285587558418,21,93,12,-24,6,5,17,-18
1458285587558418,5,-71,13,32,23,5,-38,9
1458285587559857,-18,-12,-26,-38,-20,-12,-7,-26
1458285587559857,17,-45,9,10,-18,-8,14,-2
1458285587572252,-36,-57,0,-10,-8,-9,7,11
1458285587572252,-2,15,-11,39,-20,-7,-33,-1
1458285587579198,-59,29,31,-18,-29,7,14,-26
1458285587579198,40,-20,6,-38,13,12,38,25
1458285587595705,-51,28,-45,7,8,-12,-62,-19
1458285587595705,5,-116,18,37,84,24,5,4
1458285587597208,88,58,-30,-19,-17,-3,-5,-6
1458285587597208,-45,-44,0,6,7,3,10,-2
1458285587618224,-33,34,3,-30,-6,1,14,-37
1458285587618224,-26,127,18,-41,-18,-15,-1,0
1458285587619724,6,-30,31,29,22,14,6,-4
1458285587619724,68,-20,6,-4,-12,-17,7,28
1458285587632311,-98,-123,-75,-36,-24,-2,-5,5
1458285587632311,57,103,-10,13,4,-2,-4,-24
1458285587639321,-22,7,-3,-23,-8,-8,-21,-22
1458285587639321,0,62,7,-9,-11,-2,8,-12
1458285587655806,4,-56,20,23,17,5,13,32
1458285587655806,59,15,-13,12,-10,-2,22,21
1458285587658302,-88,-92,-10,-17,-13,-6,2,-19
1458285587658302,-50,-10,24,12,66,24,-22,-5
1458285587677884,107,15,-3,-62,-58,-15,-2,5
1458285587677884,-29,12,-14,79,6,-1,-1,-24
1458285587679883,-11,-51,23,-3,43,23,27,23
1458285587679883,30,93,-11,5,-11,-7,-12,-1
1458285587692414,-20,-56,17,10,45,20,37,3
1458285587692414,38,40,-28,-89,-69,-36,-38,-6
1458285587700898,-67,76,20,29,18,10,12,21
1458285587700898,17,-52,-4,42,26,9,-16,-8
1458285587715432,83,106,18,-14,-19,-7,-5,34
1458285587715432,15,27,-3,-20,-10,-4,-28,18
1458285587717404,-35,31,-9,-2,6,-2,0,-34
1458285587717404,21,-83,3,-59,-16,-4,-8,11
1458285587738113,-61,-48,17,52,2,2,15,-16
1458285587738113,-43,13,-7,34,3,9,6,-21
1458285587739617,75,61,-12,-11,16,2,-11,18
1458285587739617,-8,-33,7,-74,-94,-31,8,10
1458285587751623,-18,49,4,87,101,48,-9,-15
1458285587751623,-30,-33,0,-20,-16,-2,13,-14
1458285587759641,10,19,-2,-39,-25,-8,21,6
1458285587759641,-30,20,13,4,-18,5,-16,-19
1458285587775490,-53,-80,20,-27,-8,-13,-8,18
1458285587775490,67,-101,-66,-31,-3,-12,-17,-11
1458285587776980,4,70,-11,-31,-34,-26,-18,-44
1458285587776980,23,30,10,47,35,20,36,25
1458285587798106,-17,2,-8,-64,-44,-30,-31,13
1458285587798106,-17,-87,31,79,34,25,48,-1
1458285587799607,2,-58,-3,-33,-19,-18,-58,30
1458285587799607,12,107,-2,89,-24,-8,-24,-53
1458285587811650,-1,-92,16,-74,-35,5,14,-2
1458285587811650,15,106,1,46,80,22,12,35
1458285587820629,33,-5,-20,2,-18,-2,21,6
1458285587820629,64,-20,39,-36,19,11,9,-5
1458285587835644,-10,82,-28,-63,-49,-17,-5,-32
1458285587835644,-105,-114,-10,51,34,-1,-7,18
1458285587837168,-111,-36,22,-21,-13,9,6,-43
1458285587837168,81,-79,-5,-1,54,13,-20,67
1458285587858174,48,63,-18,-19,-24,-20,-6,-25
1458285587858174,-3,49,50,-50,-23,-5,-28,-13
1458285587859675,-3,-49,3,54,42,14,3,-7
1458285587859675,-25,-76,-41,-22,-31,-21,12,11
1458285587871462,-38,-4,-16,-13,-18,-14,-16,-35
1458285587871462,-72,-83,12,-34,-35,-8,15,8
1458285587880483,97,42,-25,37,31,8,8,20
1458285587880483,-51,59,5,4,30,9,-13,-30
1458285587895509,23,-57,6,23,0,4,17,7
1458285587895509,71,79,11,-112,-42,-4,4,-16
1458285587897010,-21,-99,-47,-54,-80,-27,-22,-22
1458285587897010,20,85,7,44,84,36,31,15
1458285587918001,-9,22,-15,100,48,11,-14,25
1458285587918001,-74,-15,33,-12,2,0,-6,-38
1458285587919502,-84,-115,16,-39,-31,6,35,-9
1458285587919502,79,127,-36,-30,-42,-33,-16,72
1458285587931849,-10,13,24,-4,-3,-2,-21,-24
1458285587931849,16,-69,21,-1,-3,7,35,6
1458285587940838,18,24,9,17,22,14,2,2
1458285587940838,-88,-37,-36,0,-14,-20,-18,-18
1458285587955422,65,-21,-9,1,2,0,20,29
1458285587955422,23,-18,-24,-64,-40,-19,-29,-9
1458285587956867,15,70,50,73,27,17,19,-2
1458285587956867,-10,18,13,44,72,33,20,-8
1458285587977953,-28,-30,-36,2,-20,-15,-17,-12
1458285587977953,11,-13,-1,1,8,3,4,2
1458285587979398,-9,-60,-6,-29,-6,-9,0,12
1458285587979398,-2,60,11,-19,-52,-16,-6,0
1458285587991850,-20,-13,-2,21,32,7,-2,-15
1458285587991850,-18,-14,5,13,-2,0,-2,-2
1458285588000840,31,6,-24,-12,3,-8,-27,16
1458285588000840,-38,-16,-24,-10,-22,-8,-12,-31
1458285588016331,63,94,16,3,8,11,34,13
1458285588016331,16,-12,-1,10,1,2,30,20
1458285588017767,-47,-77,-3,-14,-8,-13,-31,2
1458285588017767,15,-18,15,14,2,8,32,-5
1458285588038311,-15,-32,-4,-13,-11,-6,-33,-10
1458285588038311,17,63,-4,9,2,3,-8,18
1458285588039784,7,35,4,1,0,-4,16,4
1458285588039784,-38,-56,-6,1,0,1,-20,-12
1458285588051792,-4,6,3,1,4,1,20,-3
1458285588051792,2,10,-4,14,-3,-11,-15,-5
1458285588060799,6,-2,2,-2,0,-5,-1,1
1458285588060799,-6,-33,19,-5,-13,-3,-8,-6
1458285588075809,2,10,-4,2,3,4,-4,4
1458285588075809,-4,1,-2,-3,-5,-3,-10,-7
1458285588077311,6,1,-1,10,16,1,2,6
1458285588077311,2,-1,23,-4,-8,-2,6,4
1458285588098066,-7,3,10,10,4,0,-3,-5
1458285588098066,-7,-8,-18,1,-6,1,-2,-6
1458285588099568,9,6,13,-5,-5,-1,2,6
1458285588099568,-8,-14,-5,-3,-3,-7,-12,-4
1458285588111538,-5,-1,16,-5,-3,0,4,-2
1458285588111538,0,4,13,7,1,-3,-11,-3
1458285588120547,4,12,3,-11,-5,-4,-13,0
1458285588120547,-5,-12,30,11,7,12,30,-1
1458285588135515,-5,-8,21,-7,-1,-2,1,0
1458285588135515,2,12,20,2,-1,0,8,0
1458285588136985,0,5,-19,2,4,3,13,0
1458285588136985,-14,-18,-56,-3,-3,-5,-10,-8
1458285588157748,-5,-4,-49,-10,-4,-2,-3,-1
1458285588157748,-1,0,-33,-14,0,-1,5,1
1458285588159750,3,2,13,2,-2,0,-1,3
1458285588159750,1,0,-1,23,3,0,-3,1
1458285588171662,-1,4,10,17,-1,-1,1,-1
1458285588171662,0,2,-6,-12,4,0,-7,-3
1458285588180628,2,0,-6,-20,-9,-3,1,0
1458285588180628,-1,-9,-26,-3,-1,-3,-1,1
1458285588195650,-3,-1,0,-8,-1,1,1,-2
1458285588195650,-5,-5,-12,14,0,2,-1,-2
1458285588197108,3,11,19,14,-1,0,0,3
1458285588197108,2,0,-3,-3,3,-2,0,0
1458285588218127,-5,-10,-14,6,-3,-3,-5,-7
1458285588218127,1,1,-12,-24,-5,-1,0,-3
1458285588219624,2,0,-26,4,3,1,1,-1
1458285588219624,-5,-6,1,-3,-4,-3,-3,0
1458285588242004,-3,-3,-3,-11,-6,-3,-7,-2
1458285588242004,0,6,20,11,4,1,-3,-3
1458285588243506,-1,-3,8,35,8,7,12,3
1458285588243506,0,1,7,-29,-6,-2,-6,3
1458285588255533,5,2,12,6,-3,0,9,48
1458285588255533,-12,-4,-15,-19,-8,-2,0,-64
1458285588257532,5,4,4,2,5,1,-4,-2
1458285588257532,1,1,-2,43,7,-2,-3,-8
1458285588278187,-1,2,35,11,6,-2,-6,-7
1458285588278187,0,-4,5,3,-1,-5,-5,18
1458285588279622,-3,-3,-33,-56,-23,-7,-2,-1
1458285588279622,1,0,-3,-5,6,3,2,0
1458285588300608,-6,-5,8,-24,1,-3,-5,-3
1458285588300608,1,-4,-27,19,3,0,3,13
1458285588302102,-1,1,2,6,0,-1,-3,-4
1458285588302102,-2,-1,7,-3,-4,-3,-3,5
1458285588315612,-3,2,-6,2,0,4,0,-8
1458285588315612,8,0,37,29,3,2,-5,15
1458285588317112,-3,-5,-29,2,-1,-2,5,11
1458285588317112,1,0,0,-29,-7,-3,-5,-15
1458285588338142,2,0,-39,-40,-3,2,6,-7
1458285588338142,-1,5,43,-13,1,-2,-6,8
1458285588339642,-1,2,9,28,2,-4,0,9
1458285588339642,8,4,18,15,3,-2,4,29
1458285588361152,-11,-7,-12,-7,-6,-5,-10,-64
1458285588361152,2,4,-10,6,4,3,-2,4
1458285588366657,1,-1,10,-7,4,0,-1,3
1458285588366657,-7,-8,-29,-27,-5,0,-2,-2
1458285588383199,2,2,13,25,-1,-1,-1,9
1458285588383199,2,0,-11,-15,-2,0,1,7
1458285588384678,-3,-1,16,20,4,-2,-6,-7
1458285588384678,-2,3,15,-34,-11,-5,1,-7
1458285588398715,4,3,1,17,2,3,2,12
1458285588398715,-4,-11,-28,-32,-7,-3,-2,-8
1458285588400192,2,4,38,24,4,1,0,2
1458285588400192,-5,0,2,11,-1,-3,-2,-18
1458285588420704,0,-6,-28,-6,-4,-2,0,20
1458285588420704,-3,3,19,13,2,-3,0,8
1458285588422220,4,2,-11,-20,0,1,-6,-23
1458285588422220,-3,-1,16,-2,0,-4,-3,1
1458285588434734,0,3,5,28,5,0,-1,-10
1458285588434734,0,-4,-21,-12,-5,-1,4,6
1458285588448975,0,1,-3,-6,-2,-2,-3,4
1458285588448975,-1,-1,22,25,1,-1,-3,-9
1458285588458040,1,-6,-10,-15,5,0,0,5
1458285588458040,-2,-3,-23,-28,-1,0,0,-2
1458285588459488,-3,2,1,-2,-1,0,0,-2
1458285588459488,-4,-8,-10,14,-5,-5,0,-2
1458285588480229,1,1,1,25,3,1,2,4
1458285588480229,2,7,42,11,1,-3,-2,-3
1458285588482135,-2,-2,1,-30,1,-2,-2,-7
1458285588482135,-2,-5,-17,4,-8,-2,-3,5
1458285588494613,-2,1,-8,-28,-6,-1,-2,0
1458285588494613,-4,-1,11,50,7,1,-1,-7
1458285588501622,-1,-4,-11,13,-5,-1,1,4
1458285588501622,2,2,-8,-52,-2,1,-1,3
1458285588518131,-1,-1,2,12,-2,-3,-2,-6
1458285588518131,3,-1,5,-4,0,1,3,25
1458285588519634,-5,-5,-28,-39,-4,-4,-2,-15
1458285588519634,1,2,-8,3,-1,1,1,0
1458285588540668,-3,0,16,15,-9,-3,-3,-5
1458285588540668,-4,-5,-16,-24,-14,-4,-2,-7
1458285588542169,2,0,-12,17,21,4,1,10
1458285588542169,-2,-1,9,14,9,3,0,0
1458285588555155,-1,-3,6,-16,4,3,-2,-2
1458285588555155,-2,-1,-2,6,-11,-4,-4,1
1458285588561659,-5,-4,-14,6,-2,-3,-5,-2
1458285588561659,-2,1,-10,0,0,-2,-1,-6
1458285588578671,-1,-1,10,-10,-1,-1,0,4
1458285588578671,2,1,-2,7,9,3,-1,-6
1458285588580171,0,1,9,-4,-7,0,1,-2
1458285588580171,0,-4,0,-2,-2,1,2,2
1458285588600185,1,1,3,11,0,-3,-1,2
1458285588600185,-3,-7,-21,5,-4,-2,-2,-7
1458285588601893,2,3,-3,-29,-8,2,1,-1
1458285588601893,-2,0,2,2,2,-2,-2,5
1458285588614588,0,2,16,15,-10,-4,-1,0
1458285588614588,-4,0,-13,0,10,2,-3,-8
1458285588621593,-3,-5,-3,-2,-8,-4,-3,3
1458285588621593,-2,-3,2,8,-1,-1,-3,-2
1458285588638104,-1,-2,-2,-11,2,2,0,-3
1458285588638104,0,1,-12,2,2,-2,-1,-5
1458285588639604,1,-2,8,10,9,1,-1,1
1458285588639604,2,3,2,12,0,1,1,-1
1458285588660539,-3,1,5,-1,-2,-3,-1,-4
1458285588660539,1,-2,-10,-17,-7,-1,-1,-1
1458285588663046,-1,0,4,-17,-8,-3,-2,-1
1458285588663046,1,-2,-8,3,4,3,-2,0
1458285588675395,-3,-1,21,11,-2,-3,-4,-3
1458285588675395,0,0,-1,-6,2,2,0,-1
1458285588683465,-1,-3,5,8,-3,-2,-1,-1
1458285588683465,-1,-6,-14,10,-4,-3,0,-1
1458285588698232,-1,-3,-16,-6,7,0,0,1
1458285588698232,-1,5,1,-5,7,4,3,0
1458285588699734,-4,-5,15,14,0,-2,-3,-4
1458285588699734,1,3,-7,-19,-2,-3,-2,-1
1458285588720781,0,-2,-5,9,-3,0,0,-1
1458285588720781,2,-1,-3,-21,-6,-3,1,-2
1458285588722259,-1,-2,-16,-2,6,4,2,1
1458285588722259,0,4,15,7,9,7,1,2
1458285588734769,2,-4,-19,-18,-8,-5,-1,-1
1458285588734769,-5,-5,5,18,-8,-7,-5,-3
1458285588741773,1,0,-6,-13,-11,-5,-1,1
1458285588741773,-5,-2,21,5,-1,-2,-3,-2
1458285588757797,2,7,0,-14,-2,-1,-2,0
1458285588757797,-1,-2,28,16,-3,-3,-1,0
1458285588759800,-2,-6,-7,-7,8,2,0,1
1458285588759800,-3,-5,-17,-4,-7,-5,-4,-5
1458285588779819,-1,2,10,-4,4,2,0,-1
1458285588779819,-2,-1,-7,-3,-6,-2,-2,-4
1458285588782055,-3,1,3,15,-5,-2,-3,-5
1458285588782055,1,1,3,-22,-2,-2,2,1
1458285588794138,0,1,-4,-7,13,4,3,2
1458285588794138,1,-6,-21,-18,-2,-1,0,0
1458285588803103,1,5,56,52,2,0,0,-1
1458285588803103,-3,-8,-42,-25,-6,-6,-4,-4
1458285588818114,-4,-3,1,-10,-12,-2,2,-3
1458285588818114,-3,-3,-15,-8,-3,-2,3,-1
1458285588819610,3,9,4,-1,14,4,5,5
1458285588819610,-1,-4,-6,5,-4,-2,-4,-2
1458285588840623,-1,-1,-5,-2,3,-2,-10,-1
1458285588840623,0,2,13,0,-5,-2,-2,7
1458285588842124,-8,-9,-22,-7,-5,1,8,0
1458285588842124,0,4,0,6,-3,0,-4,-12
1458285588863139,1,-4,-20,-20,-5,-4,-4,2
1458285588863139,4,5,32,20,7,4,-5,3
1458285588864641,0,-3,-31,-4,-4,-7,-9,-2
1458285588864641,-1,-4,11,6,11,5,7,1
1458285588878153,-7,-2,3,5,1,2,11,-3
1458285588878153,1,-1,-8,-11,-1,1,6,-1
1458285588879654,-7,-3,4,1,-7,-9,-12,-7
1458285588879654,1,6,19,14,-2,1,-9,-3
1458285588900305,0,-2,-1,-15,-6,-3,-4,-3
1458285588900305,-2,-2,-8,29,10,3,4,0
1458285588901921,7,4,22,-17,-11,-2,1,10
1458285588901921,-2,-2,-9,6,3,-2,-9,-18
1458285588914057,2,-1,14,13,-9,-5,0,-5
1458285588914057,1,5,-21,3,4,2,-4,-2
1458285588923063,-6,-6,0,-8,-7,-2,4,0
1458285588923063,4,0,6,10,-4,-3,8,17
1458285588938224,0,-1,-17,-8,-8,-2,-8,4
1458285588938224,-4,-2,10,-7,-3,-2,-1,-7
1458285588939721,-3,6,33,11,-3,1,-5,-10
1458285588939721,-8,-13,-57,-25,6,1,6,4
1458285588961438,-7,-10,-30,-15,-10,-3,5,2
1458285588961438,-5,-6,-4,6,-3,-6,-9,-14
1458285588963002,8,1,-10,-18,1,4,-3,6
1458285588963002,2,15,43,16,4,-2,6,7
1458285588974299,-6,-12,-5,1,3,-1,6,-4
1458285588974299,-1,-4,-15,-16,-2,-2,0,4
1458285588983279,-9,-8,-15,-10,-4,-14,-21,-18
1458285588983279,-3,1,-4,3,-21,-4,-3,16
1458285588998288,1,7,38,26,35,8,-2,-7
1458285588998288,-1,-2,2,-15,-9,-3,-8,-12
1458285588999789,-2,-5,-20,-4,8,7,7,-6
1458285588999789,7,8,34,24,-6,2,24,28
1458285589020305,0,3,0,-15,14,9,-3,-4
1458285589020305,-2,-1,14,15,-21,-8,-16,-2
1458285589022306,-4,0,-26,-27,-21,-7,-1,-1
1458285589022306,2,-9,-14,14,45,19,12,-20
1458285589034367,-2,1,6,-18,-16,-13,2,10
1458285589034367,4,3,6,17,13,4,1,28
1458285589043301,-5,0,1,3,7,0,-8,-2
1458285589043301,-5,0,7,-5,-13,-9,-31,-13
1458285589058217,-2,5,-12,-7,-7,1,-2,-12
1458285589058217,13,2,9,-2,-8,-3,9,-6
1458285589059718,-10,-11,-7,-8,-16,-2,21,33
1458285589059718,8,-2,-10,-26,18,7,0,-20
1458285589080414,-6,1,11,11,-8,-9,-24,5
1458285589080414,-6,-3,-31,-18,-15,-12,-4,19
1458285589081914,5,3,7,16,21,12,20,-13
1458285589081914,2,6,5,-26,-23,-6,9,14
1458285589093980,-12,-9,-4,13,3,0,8,2
1458285589093980,-10,-4,6,3,9,9,-7,-34
1458285589102981,11,0,-15,12,11,-3,-14,12
1458285589102981,-5,1,5,10,-10,-5,-6,6
1458285589118011,1,-6,-5,-34,-36,-6,18,12
1458285589118011,-4,-6,-7,8,29,3,13,-3
1458285589119512,2,1,1,-12,-9,2,-13,-34
1458285589119512,-16,-5,-10,-23,-8,-8,-17,-8
1458285589140516,9,2,-2,24,-9,-3,4,12
1458285589140516,-15,-8,3,-13,0,-2,0,-12
1458285589142014,14,14,5,21,-2,4,-5,12
1458285589142014,8,2,4,8,-5,1,13,6
1458285589154022,-7,-7,4,4,1,-1,-11,-26
1458285589154022,-3,2,-6,-12,-7,-7,-11,7
1458285589163351,-12,-2,-1,-4,14,1,9,-6
1458285589163351,13,-4,-5,2,-4,-4,-15,8
1458285589177921,8,5,0,-1,8,7,6,-5
1458285589177921,0,5,2,0,-5,-13,-24,26
1458285589179866,4,-3,1,0,-2,0,8,-4
1458285589179866,-13,-10,-16,-10,-1,-3,2,-27
1458285589200006,4,0,-7,4,10,7,-4,11
1458285589200006,-14,-4,1,11,12,11,24,9
1458285589202412,-1,-1,1,-25,-13,-8,15,-3
1458285589202412,-21,-22,1,56,-1,-7,-14,-23
1458285589214424,6,9,-3,-10,-14,-13,-36,1
1458285589214424,18,12,6,17,28,17,0,9
1458285589222947,2,3,-4,-3,1,0,3,-1
1458285589222947,13,2,5,-9,3,4,14,1
1458285589238003,-11,6,0,-34,-13,-3,-1,-17
1458285589238003,4,-12,2,24,8,3,3,1
1458285589239441,-10,-7,0,-2,0,-5,-6,-1
1458285589239441,-12,-3,2,1,7,8,17,1
1458285589260207,3,-7,-15,-19,-5,-7,18,2
1458285589260207,12,18,-1,-17,-11,-4,-29,5
1458285589262431,-15,-12,-2,-8,-17,-3,-1,-9
1458285589262431,11,10,-2,-17,5,-6,-27,3
1458285589283027,-4,4,13,32,12,3,5,-5
1458285589283027,9,-9,-15,-10,-6,2,26,-21
1458285589284485,-12,-11,0,-27,-21,-14,-32,4
1458285589284485,-34,-7,4,12,11,-4,-2,5
1458285589297438,7,2,2,31,22,9,2,1
1458285589297438,-6,0,3,3,7,2,6,-14
1458285589303943,10,-1,-8,-2,5,-2,20,23
1458285589303943,-1,-11,-1,-2,-3,-2,16,2
1458285589320283,5,6,10,0,-3,-3,-33,-10
1458285589320283,-13,3,5,0,-10,-6,-9,-13
1458285589322298,-3,-7,-3,-11,-3,10,-12,-12
1458285589322298,34,25,7,-8,-14,-9,5,29
1458285589342863,-37,-36,-2,25,17,6,15,3
1458285589342863,21,3,-8,-75,-35,-5,18,11
1458285589344838,-20,8,0,78,27,8,39,-1
1458285589344838,31,-5,2,-8,-21,-15,-48,-13
1458285589357329,9,8,-4,-22,-2,11,-4,-6
1458285589357329,-26,-13,-4,-9,-14,-6,-17,-5
1458285589364396,13,13,11,15,12,4,7,-5
1458285589364396,1,4,4,21,26,7,18,35
1458285589381312,16,12,-6,-85,-10,-7,-4,-3
1458285589381312,-14,5,1,58,-3,2,9,-20
1458285589382831,-1,14,7,5,-11,-10,-21,-10
1458285589382831,-22,-23,-4,2,26,18,15,-2
1458285589403148,32,17,1,-3,-6,-6,18,14
1458285589403148,-26,-38,-5,-18,24,2,-46,-4
1458285589404648,19,18,1,40,5,-1,-27,19
1458285589404648,-31,3,0,-38,-32,-9,8,-50
1458285589417215,25,8,5,20,24,4,24,40
1458285589417215,12,18,8,-4,31,16,23,14
1458285589424220,-9,-26,-16,6,2,-5,-15,-4
1458285589424220,-7,-5,-6,-4,-3,-3,14,-21
1458285589440687,9,24,5,38,-6,-3,-20,6
1458285589440687,-5,-27,-5,-29,-44,-14,-13,-31
1458285589442179,-3,13,7,-70,-16,5,10,6
1458285589442179,-13,-17,-26,12,-14,-6,11,12
1458285589463160,-16,-19,-9,32,46,15,-4,-18
1458285589463160,1,11,-9,-13,-19,-6,6,-4
1458285589464613,-12,-8,-2,6,5,-3,-3,-15
1458285589464613,28,4,2,-89,-31,4,20,12
1458285589477610,-3,-19,-7,76,15,7,2,-1
1458285589477610,-3,1,-12,-33,-29,-21,-49,-27
1458285589484392,3,-4,10,35,37,16,29,18
1458285589484392,6,10,6,-5,8,-3,-29,3
1458285589502632,-14,-16,1,-25,-25,-12,-1,-12
1458285589502632,57,51,19,2,3,8,33,38
1458285589504147,-12,-32,-10,-76,-20,-16,-8,-26
1458285589504147,31,31,-1,85,19,11,15,14
1458285589523163,-35,-28,2,-20,-11,-4,14,28
1458285589523163,-25,3,-10,-5,-38,-18,-30,-34
1458285589525149,-19,-13,5,56,39,11,-27,-25
1458285589525149,42,30,15,-38,-13,-1,-6,6
1458285589537657,-30,-19,-12,39,12,8,23,11
1458285589537657,13,-4,-6,-5,-20,-10,10,33
1458285589544219,5,-1,-1,-32,-1,0,30,1
1458285589544219,-14,-17,3,30,-33,-18,-21,-12
1458285589559739,28,32,16,-35,37,25,-1,-3
1458285589559739,-102,-47,1,51,27,12,-17,-42
1458285589562075,67,34,2,35,-60,-27,-11,40
1458285589562075,24,7,11,71,21,21,11,7
1458285589582903,-3,1,8,-18,8,2,-12,-26
1458285589582903,0,-9,-10,27,20,16,21,2
1458285589584845,-33,-21,-17,25,26,13,27,38
1458285589584845,-1,-10,-11,-23,-14,-18,-20,4
1458285589597276,-36,-15,-6,-24,-74,-36,-47,-59
1458285589597276,11,9,6,30,56,4,-31,-25
1458285589604342,2,4,-1,-41,-4,5,2,-4
1458285589604342,-75,-24,-1,7,5,8,28,22
1458285589620746,97,67,-13,-24,-11,-17,-2,35
1458285589620746,-68,-61,-8,-60,-39,-29,11,-17
1458285589622290,-1,0,-14,-95,-54,-23,-16,-6
1458285589622290,-20,-51,8,22,42,8,-58,0
1458285589643270,-2,26,16,11,41,19,17,-1
1458285589643270,8,-9,-16,-60,-26,-9,7,-3
1458285589644825,32,3,2,17,-8,16,13,7
1458285589644825,40,66,-12,69,78,10,18,28
1458285589657561,-30,-27,-7,-52,-35,-18,-8,-37
1458285589657561,-8,1,24,-35,-57,-37,14,-47
1458285589664085,-18,-5,5,75,94,63,-2,61
1458285589664085,13,-31,-9,-52,-8,8,26,-6
1458285589681136,0,-2,5,56,49,15,-10,21
1458285589681136,30,38,0,-25,6,16,22,-22
1458285589682642,-91,-44,12,-25,-52,-39,-5,-31
1458285589682642,2,-18,-19,-13,-21,-3,10,-13
1458285589703187,-60,-31,-19,-53,-36,-16,5,-16
1458285589703187,62,65,16,-3,7,16,49,91
1458285589704688,54,23,8,-28,-44,-35,-37,17
1458285589704688,18,44,15,61,54,25,-12,6
1458285589717218,-48,-40,-37,-1,-22,-11,-6,-70
1458285589717218,11,12,-9,26,24,7,11,3
1458285589724223,-11,-7,26,13,-20,-10,-2,-18
1458285589724223,-28,1,-38,-71,-57,-13,9,-34
1458285589740722,-55,-75,-4,69,-54,-16,-26,-16
1458285589740722,-14,36,3,40,19,20,28,9
1458285589742235,19,-7,9,31,-71,-28,-25,24
1458285589742235,33,68,29,43,83,36,-38,50
1458285589763268,66,-2,-5,-5,-2,-3,-5,6
1458285589763268,-35,-4,-19,-16,14,-5,-12,-14
1458285589764747,-61,-28,-16,-69,-44,-30,0,-34
1458285589764747,-63,-53,6,-60,-80,-27,38,-29
1458285589776938,17,19,7,20,28,6,-27,24
1458285589776938,-17,-31,-24,-1,9,1,-30,-1
1458285589785691,42,3,-9,-33,4,8,7,-19
1458285589785691,-26,-12,10,4,-14,-19,-49,5
1458285589800361,43,37,10,-65,-52,-22,3,4
1458285589800361,-28,-18,51,99,67,37,11,-16
1458285589802365,-18,29,-8,-37,28,17,12,5
1458285589802365,39,-2,-39,28,20,-4,20,36
1458285589821902,14,19,64,29,-39,-10,6,-7
1458285589821902,-58,-69,-32,-74,-54,-13,-25,-41
1458285589837412,22,38,-18,41,74,37,54,-25
1458285589837412,22,29,29,-23,7,-12,-43,61
1458285589838395,18,-12,13,-3,1,0,-20,9
1458285589838395,34,41,22,28,9,-9,-32,-29
1458285589845918,-71,-44,-21,-11,35,21,15,0
1458285589845918,70,15,4,-44,-55,-22,-13,-11
1458285589860914,-44,24,-8,2,16,8,19,3
1458285589860914,127,44,14,32,9,3,25,58
1458285589866420,-77,-46,-18,-17,-32,-18,-28,-74
1458285589866420,-20,-10,-8,12,14,11,20,-34
1458285589882913,11,-12,-51,-20,6,-1,-1,37
1458285589882913,-12,-3,11,9,10,7,-15,-6
1458285589884901,9,15,-19,-29,-35,-23,2,-6
1458285589884901,-41,-41,8,8,32,18,4,-9
1458285589896876,25,37,0,35,37,15,24,7
1458285589896876,-13,-28,-5,1,-7,-5,-9,12
1458285589906305,32,17,9,31,16,1,-28,16
1458285589906305,-15,-19,-16,-16,-21,-13,-5,-29
1458285589920823,-10,-10,-18,-16,-3,4,4,-15
1458285589920823,-17,11,-51,-24,-2,-11,-7,16
1458285589922322,32,18,-9,-1,3,7,-42,17
1458285589922322,-21,-7,33,-5,-16,-1,41,-22
1458285589942835,-25,-22,18,-8,-3,5,38,3
1458285589942835,38,10,23,0,-9,4,44,53
1458285589944837,23,18,10,26,26,16,23,-30
1458285589944837,-18,-5,14,0,-13,-6,-1,-20
1458285589956853,9,11,6,-5,12,5,-35,17
1458285589956853,3,-20,-45,-21,-10,-11,1,35
1458285589965749,2,-7,37,-2,-7,-8,-13,-29
1458285589965749,-7,0,1,-1,-6,-5,-19,-6
1458285589981176,-4,-5,-5,24,7,-3,8,-3
1458285589981176,-2,-1,49,-10,-4,-2,-21,-11
1458285589986749,0,-12,-28,-19,-2,-2,4,15
1458285589986749,-6,2,17,-7,-13,-5,-6,-17
1458285590003215,-7,0,46,-2,5,2,3,-5
1458285590003215,-12,-11,24,15,1,-2,-6,-10
1458285590004717,15,8,31,2,5,2,-7,12
1458285590004717,-6,-3,-48,-21,-6,-5,2,-14
1458285590016746,-6,-8,-9,10,0,0,-8,14
1458285590016746,-11,-5,-19,17,-1,2,11,-29
1458285590025754,9,6,-14,-9,5,-2,1,-26
1458285590025754,-6,3,-6,-17,-8,0,-13,-9
1458285590039763,-11,-12,-7,-15,-9,-4,14,3
1458285590039763,5,-5,-21,0,-4,-5,-6,16
1458285590046767,3,2,12,41,9,1,-1,7
1458285590046767,-7,-2,-12,-18,-5,-1,-11,-11
1458285590063832,4,10,22,-9,2,2,-4,4
1458285590063832,-3,-5,-10,-12,-3,1,12,-10
1458285590065312,3,-2,-26,35,8,0,9,22
1458285590065312,-1,-3,-34,-19,-11,0,-2,1
1458285590076927,-1,-3,-22,2,6,-2,2,-1
1458285590076927,2,6,6,-2,0,0,-2,0
1458285590085430,0,3,-19,-2,7,2,-9,-1
1458285590085430,1,2,7,5,0,-1,4,4
1458285590099999,-1,-3,-32,-30,-8,-1,0,-2
1458285590099999,-3,-2,-12,0,-7,-1,-9,-2
1458285590106512,3,3,14,-2,0,-2,-3,7
1458285590106512,-1,4,13,22,6,-3,2,1
1458285590123085,-1,-5,-32,-7,-1,-1,-4,-13
1458285590123085,0,-7,-17,0,0,0,-7,2
1458285590124531,0,-3,8,-20,-18,-7,-1,4
1458285590124531,0,1,-8,17,8,1,3,-4
1458285590136593,-5,2,33,-13,-8,-3,-5,-7
1458285590136593,2,4,-4,-28,-7,-3,0,10
1458285590145605,-2,-5,-21,-7,-4,0,0,0
1458285590145605,1,4,31,11,1,0,0,-4
1458285590160644,2,-2,-36,-12,-7,-4,-2,-1
1458285590160644,1,-2,14,19,7,-2,-2,3
1458285590163134,-1,-3,-10,-22,-5,-1,-1,-1
1458285590163134,-2,-3,6,36,25,6,0,1
1458285590191399,0,1,16,0,-2,-2,-3,2
1458285590191399,-1,-3,1,-18,-8,-4,-4,0
1458285590192899,2,4,12,16,-8,-3,-4,2
1458285590192899,-3,-3,-10,-23,-15,-4,-2,-2
1458285590205414,1,1,16,32,3,2,3,1
1458285590205414,4,3,0,-9,3,1,-2,0
1458285590207416,0,0,4,10,3,-3,0,1
1458285590207416,-4,-4,-10,-22,-8,-3,1,-2
1458285590221476,-3,-2,1,9,1,1,-1,-4
1458285590221476,-1,0,6,9,0,0,-4,-2
1458285590227025,2,4,-17,-27,5,1,2,1
1458285590227025,-3,-7,8,-3,-17,-6,-1,-4
1458285590244522,-1,1,3,-7,2,-1,1,-2
1458285590244522,1,-1,3,10,4,4,0,0
1458285590246022,1,3,27,25,-9,-3,-3,0
1458285590246022,3,2,-3,4,24,9,2,1
1458285590266162,-3,-6,-31,-18,-4,-4,-3,-2
1458285590266162,-2,1,2,-2,-4,-2,-2,-1
1458285590267619,-3,-10,-33,-4,0,-3,2,-3
1458285590267619,-2,0,7,-17,-14,-6,-1,-1
1458285590281243,1,3,9,-7,3,5,2,2
1458285590281243,-2,2,19,27,9,0,-3,-1
1458285590286803,-2,-7,-15,-16,-8,-4,-3,-2
1458285590286803,-3,2,8,-2,-7,-4,-4,-2
1458285590303308,-7,-9,-13,8,3,1,-1,-4
1458285590303308,2,-5,-1,-17,-4,-1,0,0
1458285590304797,8,10,23,2,9,5,3,9
1458285590304797,-10,-9,-20,21,-2,-5,1,-1
1458285590325635,4,5,21,-16,-3,1,0,3
1458285590325635,6,13,24,24,5,0,-4,-1
1458285590327080,-5,-21,-31,-22,-8,-3,-1,-3
1458285590327080,-5,-14,-49,-19,-9,-5,-3,-7
1458285590340134,-4,3,-14,-22,-1,-3,-1,-4
1458285590340134,-6,-9,47,42,-1,-4,-1,-3
1458285590346666,2,10,23,3,5,3,1,0
1458285590346666,3,6,15,1,2,2,-1,1
1458285590363183,-4,-3,-10,0,-3,-3,0,1
1458285590363183,-2,-1,-15,-19,2,0,0,-1
1458285590364684,-2,4,14,11,2,-2,-2,-1
1458285590364684,0,-3,-1,-2,-2,0,-1,-2
1458285590385330,-2,1,1,3,3,-1,-2,-1
1458285590385330,14,-2,-10,-7,-2,0,0,1
1458285590387348,-17,-10,5,3,2,1,0,-4
1458285590387348,-7,6,-5,-14,-3,0,3,0
1458285590399348,12,-9,-20,8,9,1,4,2
1458285590399348,6,3,-34,-37,0,0,-1,5
1458285590408389,-6,3,35,49,14,3,-9,-2
1458285590408389,0,-2,37,-2,-1,-3,-5,-2
1458285590423007,-8,10,51,17,1,-1,-4,-3
1458285590423007,-18,-31,-117,-48,-24,-8,1,-7
1458285590424450,10,10,28,12,0,2,3,2
1458285590424450,-3,2,14,0,-2,-2,0,-1
1458285590445523,-3,4,11,-4,5,3,-1,-1
1458285590445523,5,4,17,0,1,0,-2,2
1458285590447482,2,2,-8,-7,-3,-3,-4,-1
1458285590447482,-5,-5,-17,-7,-11,-5,-3,-3
1458285590458994,-8,-6,-10,3,2,-2,-1,-8
1458285590458994,6,4,20,12,2,-1,-1,-1
1458285590467873,16,11,15,-2,-4,-2,-1,7
1458285590467873,1,-4,-35,-15,8,3,2,-4
1458285590483278,-14,-9,-22,9,4,4,12,5
1458285590483278,-18,-7,-1,10,2,-1,-1,-9
1458285590484755,15,17,74,24,3,3,-15,0
1458285590484755,1,-12,-69,-37,-10,-13,-16,-4
1458285590505776,-4,-1,6,-2,-5,7,4,-4
1458285590505776,5,4,5,7,8,4,13,8
1458285590507289,-5,-2,-5,-4,-2,1,3,-14
1458285590507289,13,29,104,30,2,5,0,7
1458285590519686,-11,-18,-83,-19,-36,-13,-5,-12
1458285590519686,-15,-19,11,-9,11,2,-3,-4
1458285590526696,8,-3,3,18,23,4,2,18
1458285590526696,1,3,-3,-14,-6,0,-5,-10
1458285590543200,-3,3,6,6,1,-3,-4,7
1458285590543200,4,8,60,12,-10,1,5,5
1458285590544703,-10,-22,-66,-29,-20,-14,-5,-11
1458285590544703,2,-1,12,15,13,13,38,46
1458285590565595,10,13,33,1,11,1,4,-10
1458285590565595,-12,-8,-33,-10,-20,-15,-44,-36
1458285590567070,-2,8,10,2,-3,-8,-35,7
1458285590567070,17,5,54,19,10,7,-7,-1
1458285590579475,-19,-5,-25,7,-4,-2,10,11
1458285590579475,-12,-24,-16,-45,-31,-11,8,-14
1458285590588544,-14,-15,-40,-17,19,3,13,0
1458285590588544,3,1,26,20,-2,-6,-3,-17
1458285590602876,19,3,-19,-27,-14,-1,-4,6
1458285590602876,6,30,65,26,1,0,-12,-1
1458285590604878,-7,-1,-52,26,13,9,12,4
1458285590604878,-15,-31,-94,-51,17,6,17,-18
1458285590626354,6,3,66,0,17,1,-1,-31
1458285590626354,2,2,-20,2,-38,-13,-13,1
1458285590627798,-1,2,28,17,19,10,23,-9
1458285590627798,-8,2,8,1,-12,-3,-28,22
1458285590639363,13,1,-9,5,-6,7,25,14
1458285590639363,3,4,-2,-12,17,-3,-4,-20
1458285590648306,2,-1,2,-15,-6,-14,-38,11
1458285590648306,-21,-4,3,-3,-14,-1,21,-14
1458285590663354,5,-3,42,35,10,4,1,-15
1458285590663354,-8,-10,-57,7,12,-2,-4,34
1458285590664903,2,0,-10,-10,-7,4,9,-10
1458285590664903,4,7,-6,12,-16,-11,-9,58
1458285590685854,-10,-9,-2,-22,-8,-7,-4,-40
1458285590685854,3,5,4,-17,12,3,-7,3
1458285590687354,3,0,12,8,12,15,20,-7
1458285590687354,8,5,6,41,1,1,-12,-19
1458285590699320,-6,3,-23,7,6,-6,0,23
1458285590699320,1,-1,1,9,21,4,12,5
1458285590708331,-9,-5,-8,-38,-6,-1,-7,-19
1458285590708331,11,4,4,29,8,-5,-11,4
1458285590722848,-5,0,1,-2,-25,-9,-10,10
1458285590722848,11,3,7,-27,19,4,-7,-22
1458285590724849,-29,-17,-15,-6,-33,-13,-8,12
1458285590724849,17,11,-4,3,-3,-3,8,16
1458285590745370,-2,-10,-8,-18,-20,-9,-14,-24
1458285590745370,-7,-3,4,-16,-27,-6,10,-15
1458285590747371,9,8,1,19,24,8,-20,5
1458285590747371,-16,-7,-5,-24,-1,0,27,17
1458285590759383,15,3,-12,-30,21,-2,-5,9
1458285590759383,-17,-4,4,7,-14,2,-8,-1
1458285590768389,18,4,-7,-36,-18,-8,6,-16
1458285590768389,-14,4,-8,20,-29,-4,2,-14
1458285590782903,-2,-6,9,27,16,-5,-31,-6
1458285590782903,10,17,-13,-58,-2,3,12,-1
1458285590784405,-4,-27,0,3,-2,-5,3,9
1458285590784405,2,-9,-10,44,59,19,6,3
1458285590805500,-24,-11,5,14,-28,-3,25,8
1458285590805500,9,5,20,48,-25,-12,-9,-3
1458285590807444,24,4,-3,7,-7,-3,1,-15
1458285590807444,3,3,0,-72,-4,3,12,-2
1458285590818981,-3,-3,-3,2,13,3,-2,29
1458285590818981,-42,-7,2,51,17,8,16,-12
1458285590828003,8,7,3,-12,-11,-5,-8,-5
1458285590828003,-26,-21,2,-22,-14,-7,-15,-26
1458285590843033,18,17,1,65,34,10,1,3
1458285590843033,-20,-20,-4,3,9,-1,6,-3
1458285590844530,-19,-5,-8,1,-22,-1,21,-1
1458285590844530,43,16,5,4,25,2,-26,22
1458285590865575,44,11,3,-32,-17,-9,-17,7
1458285590865575,-27,-4,1,-1,18,5,-1,12
1458285590867076,-17,-7,-8,-16,-11,-9,6,-22
1458285590867076,-21,3,-16,-54,-38,-8,8,-29
1458285590879086,-24,-11,-16,47,19,8,-8,-28
1458285590879086,67,17,1,8,-7,0,0,55
1458285590888228,-30,-19,7,-4,10,1,-7,-8
1458285590888228,11,9,-9,-32,-28,-12,26,-11
1458285590903181,-39,-13,2,-23,-14,-2,-5,25
1458285590903181,-12,-6,6,-18,13,4,-12,-19
1458285590904681,45,34,7,22,3,-1,-7,20
1458285590904681,6,9,2,-13,-5,-3,-12,-7
1458285590925762,-19,-2,-2,-45,-26,-10,3,-27
1458285590925762,11,2,-8,18,-24,-7,14,0
1458285590927198,34,3,8,19,76,28,15,36
1458285590927198,-29,-41,1,32,40,13,-6,-29
1458285590939204,16,3,-2,-24,-1,-12,5,1
1458285590939204,18,8,2,11,12,7,-14,34
1458285590948212,-54,-12,-2,-39,-53,-12,-9,-23
1458285590948212,15,8,-2,85,28,0,-9,-2
1458285590963244,-18,-7,-1,-17,-10,1,-2,-13
1458285590963244,31,21,-1,-3,4,-5,24,2
1458285590964746,20,-7,0,6,-17,-5,-15,10
1458285590964746,-33,15,-5,-16,-11,2,-3,-25
1458285590987200,17,0,6,-13,-8,-8,-9,43
1458285590987200,-11,-4,-14,-22,-36,-10,-3,-3
1458285590988681,-19,14,2,-3,24,8,11,-13
1458285590988681,-24,-6,5,4,-21,-9,-18,-8
1458285590999717,-3,-16,2,-15,-6,6,12,-24
1458285590999717,47,36,6,57,68,17,12,2
1458285591009702,-30,-15,-8,12,5,-8,-5,3
1458285591009702,7,16,0,-14,-17,-3,6,-4
1458285591023276,-20,-42,6,-7,9,7,-2,-14
1458285591023276,-7,-9,-14,-42,-81,-30,10,-2
1458285591024744,-18,-1,7,-6,30,-3,-58,-5
1458285591024744,22,38,8,18,67,18,9,21
1458285591045787,12,-12,1,3,-12,-3,5,1
1458285591045787,-7,43,1,-10,-1,8,13,-7
1458285591047262,-25,-51,-8,-5,-22,-11,10,17
1458285591047262,-1,12,-17,-36,-35,-8,0,-5
1458285591068759,1,46,8,-5,0,-3,-21,0
1458285591068759,-6,-34,-5,-51,-26,-2,-27,-7
1458285591070259,27,18,4,56,10,-2,15,-2
1458285591070259,-16,-22,13,46,9,-2,-25,9
1458285591082765,47,-2,-5,13,15,8,18,9
1458285591082765,-33,56,-4,16,-20,-13,1,-35
1458285591089329,-5,-14,8,-53,-18,-1,22,4
1458285591089329,25,-33,-12,34,-3,-10,8,62
1458285591105585,-9,-18,-18,-6,-4,-7,7,4
1458285591105585,-66,-40,3,-54,22,9,-35,-42
1458285591107086,68,35,-3,-31,-43,0,7,22
1458285591107086,-20,-6,-8,10,24,-9,-6,-52
1458285591119127,2,-7,4,-5,-6,5,5,18
1458285591119127,60,-24,-14,36,16,-4,-1,41
1458285591128165,-80,0,-16,-46,10,6,3,-34
1458285591128165,68,13,10,-48,-18,3,23,7
1458285591143173,12,24,-6,-80,-72,-31,-28,-34
1458285591143173,-78,-3,-4,107,89,35,10,-45
1458285591144673,76,47,6,4,-27,-13,8,99
1458285591144673,-22,-38,-10,-23,-36,-18,-35,-2
1458285591165783,43,72,11,21,45,14,6,-19
1458285591165783,-33,29,35,-42,-29,-9,-27,-21
1458285591167231,-26,-56,-32,13,-4,-8,-24,-32
1458285591167231,81,73,6,33,-4,1,7,39
1458285591188247,103,73,-1,-32,-77,-26,-17,-10
1458285591188247,-47,8,-5,34,34,10,24,24
1458285591189746,-50,11,-35,-4,-59,-26,0,-28
1458285591189746,-22,-67,50,14,40,27,10,-10
1458285591203147,-32,68,6,-6,23,5,5,6
1458285591203147,21,109,13,85,29,14,8,11
1458285591204648,-75,-108,36,-6,26,15,4,-17
1458285591204648,-15,99,-97,-22,-20,-24,-11,-6
1458285591225726,55,-14,41,38,30,21,10,7
1458285591225726,-27,-92,-23,-31,6,1,8,14
1458285591227181,-33,-44,0,-5,-4,-4,5,-42
1458285591227181,-6,42,29,35,-5,1,-21,-21
1458285591248129,13,-103,19,52,33,15,15,46
1458285591248129,8,-74,-61,-57,-39,-19,6,-36
1458285591249631,13,57,46,5,9,8,-2,-11
1458285591249631,-66,22,-35,-41,-54,-30,-48,30
1458285591263167,-7,31,-35,-33,-20,-8,-11,17
1458285591263167,-73,-18,45,42,69,26,21,-8
1458285591264652,127,105,14,62,58,15,22,13
1458285591264652,-74,-37,26,46,39,16,15,-23
1458285591285743,6,57,-19,13,-38,-19,-16,-4
1458285591285743,38,-90,-37,1,1,9,6,25
1458285591287239,37,55,9,9,-11,-8,-6,-14
1458285591287239,29,-25,35,-74,2,16,13,2
1458285591308291,-82,25,-63,11,29,0,-4,-6
1458285591308291,9,58,40,10,-13,-7,-9,-18
1458285591309779,55,-98,48,5,4,13,-6,14
1458285591309779,-85,-16,-64,-36,-47,-27,-6,-22
1458285591322789,74,61,59,-16,9,6,10,8
1458285591322789,-51,-80,-30,-47,-36,-13,-23,-16
1458285591329359,-32,115,-32,4,3,-9,0,30
1458285591329359,-59,-128,49,3,2,21,45,-5
1458285591346510,30,27,-58,15,18,1,2,13
1458285591346510,-26,38,18,10,8,-4,-6,4
1458285591347967,23,98,34,-8,-18,-1,4,-3
1458285591347967,109,-59,-39,-17,-5,-7,-10,9
1458285591368003,-109,-69,-61,22,-1,-7,-13,-19
1458285591368003,48,-10,31,-56,-30,-12,-4,16
1458285591369983,-33,-84,-8,42,28,14,-6,-11
1458285591369983,37,79,43,10,-24,-4,11,-6
1458285591381887,-41,-36,15,15,29,19,2,-4
1458285591381887,56,33,1,1,-21,-6,-1,15
1458285591391331,-4,-26,-38,-14,9,-6,-19,-17
1458285591391331,-47,-77,26,-20,-10,-9,-9,-15
1458285591405363,-92,-7,-29,-30,-32,-21,-27,-29
1458285591405363,65,7,-14,-6,-5,-12,12,28
1458285591407365,3,93,-20,-16,-12,6,-36,-12
1458285591407365,-15,-32,18,-19,6,4,59,-3
1458285591428399,-27,-128,12,16,11,11,-6,-7
1458285591428399,28,50,25,8,-4,-11,4,7
1458285591429882,0,-2,-47,-7,-4,-4,6,8
1458285591429882,19,43,-25,-2,9,-3,-9,21
1458285591441890,0,-12,26,2,9,5,23,-2
1458285591441890,-3,-18,37,4,-7,-2,-21,-34
1458285591456906,-18,-29,-28,-44,-20,-10,5,-16
1458285591456906,15,36,10,33,14,2,-37,-19
1458285591465435,1,4,-22,-44,-9,-2,1,6
1458285591465435,5,0,9,29,-7,-2,1,4
1458285591467437,-37,-21,20,0,2,0,3,-10
1458285591467437,11,-3,10,16,12,3,-16,4
1458285591488339,6,7,-29,-41,-7,-2,3,17
1458285591488339,10,-4,10,-13,-5,5,14,6
1458285591489856,0,-26,30,8,-2,-4,0,0
1458285591489856,10,32,34,34,7,2,4,26
1458285591501873,4,-6,33,13,-11,-11,-31,0
1458285591501873,-9,16,-26,-53,-11,-5,-17,-21
1458285591510899,4,-13,3,-3,-7,4,56,33
1458285591510899,10,20,33,61,19,5,-1,-30
1458285591525912,-7,-4,-29,-17,0,6,13,57
1458285591525912,-6,-17,-21,-18,-2,-2,-13,-30
1458285591527415,5,-13,-80,-60,-19,-14,-22,-20
1458285591527415,5,3,-29,-44,-14,-4,4,28
1458285591548307,-1,-1,40,59,12,0,0,31
1458285591548307,10,7,-6,46,14,3,-11,-47
1458285591549808,17,-10,-37,-6,-2,-1,4,12
1458285591549808,-45,11,7,9,1,-1,-16,-35
1458285591561816,9,-5,-24,-43,-5,0,16,26
1458285591561816,-12,-3,-20,-27,-4,-5,-12,-40
1458285591570897,-16,-9,39,-16,-2,-1,9,-2
1458285591570897,5,2,-18,-28,-1,3,-8,2
1458285591586073,11,12,41,51,10,4,12,-25
1458285591586073,1,-14,-24,18,-1,-2,9,49
1458285591588097,-11,-6,-1,9,3,-7,-21,-22
1458285591588097,17,0,-21,-3,1,-1,-1,17
1458285591608135,3,9,-14,-1,-2,1,8,-18
1458285591608135,5,5,20,2,-8,-3,-5,26
1458285591609601,-3,-4,-4,-18,1,1,-22,30
1458285591609601,0,-3,-13,7,-2,-5,27,-7
1458285591621905,-1,14,66,31,6,5,-18,-53
1458285591621905,3,-7,-34,-40,-6,-3,22,24
1458285591630855,-12,-11,-33,63,7,0,-10,-1
1458285591630855,12,4,-21,-40,-6,-1,-11,4
1458285591645849,-9,4,9,-6,2,4,24,0
1458285591645849,9,9,51,25,1,-1,-17,5
1458285591647326,-8,-16,-6,-7,-2,2,15,12
1458285591647326,4,4,-14,-12,2,2,6,2
1458285591668349,2,-3,-7,-9,-5,-2,-13,-19
1458285591668349,8,11,21,1,2,2,6,25
1458285591669856,-7,-4,2,-3,-3,-6,-3,-9
1458285591669856,2,-1,-13,14,3,3,-7,-5
1458285591682083,-1,-2,65,26,0,-3,-9,1
1458285591682083,-1,0,-53,-8,-6,-1,9,14
1458285591690569,-2,8,37,0,-8,-6,-2,-12
1458285591690569,3,-10,-25,-15,2,3,-2,-22
1458285591705600,1,6,3,14,4,-6,-10,17
1458285591705600,-2,-5,-18,-7,-6,1,0,-50
1458285591707079,-13,-5,-7,-12,-2,1,10,7
1458285591707079,21,4,18,-5,1,2,16,4
1458285591728116,-17,-9,-34,7,-2,0,1,-6
1458285591728116,2,-9,17,-8,-1,-1,-6,22
1458285591729596,13,16,40,38,10,7,9,-7
1458285591729596,-1,-1,-3,-50,-13,-1,7,15
1458285591741611,-5,-18,-17,6,0,-9,-27,-19
1458285591741611,-2,3,12,10,4,1,13,26
1458285591750647,6,-1,-1,-21,0,2,6,39
1458285591750647,-10,1,-8,15,-5,-10,-30,-69
1458285591765650,4,4,20,-2,-1,1,8,6
1458285591765650,-7,-4,-19,4,3,-1,-8,-12
1458285591767151,1,3,22,20,-1,-4,-14,-13
1458285591767151,-6,-12,-19,-9,-7,0,5,15
1458285591788216,-1,-5,-22,-25,0,2,2,-14
1458285591788216,4,-2,6,-5,-4,2,0,7
1458285591789704,-2,0,4,-3,6,1,0,-7
1458285591789704,-3,15,11,16,0,-1,-6,2
1458285591801959,3,-11,-5,-12,-2,-1,7,3
1458285591801959,0,3,22,5,2,0,-2,-1
1458285591811455,-2,-12,-23,-22,-7,-1,-2,-6
1458285591811455,-1,-6,4,27,5,2,-1,19
1458285591825465,-2,4,6,10,-2,-3,-7,-30
1458285591825465,-4,-9,-18,-2,3,-1,-35,4
1458285591826966,1,0,15,7,-6,0,32,-15
1458285591826966,0,-4,2,8,5,6,7,14
1458285591847980,0,2,-16,-24,0,1,-1,11
1458285591847980,-2,3,0,6,0,-3,-10,1
1458285591849482,-1,2,-8,-17,-3,-2,-16,-7
1458285591849482,-3,-4,-8,-16,-4,-4,-4,4
1458285591872500,3,5,10,2,-7,-5,-1,3
1458285591872500,-1,-1,-13,-3,6,4,3,-5
1458285591874000,-4,-7,-1,29,-3,-3,-5,1
1458285591874000,1,4,7,-32,7,3,4,0
1458285591885271,-1,-2,-8,-4,10,5,-3,-3
1458285591885271,2,3,1,29,4,-1,6,7
1458285591892277,2,4,17,21,-1,1,7,-1
1458285591892277,-2,-1,-3,-22,-10,-7,-8,-2
1458285591907915,3,4,3,12,-6,-2,-2,0
1458285591907915,-2,-9,-9,-25,-7,-3,11,-4
1458285591909416,-4,5,0,8,1,-8,-28,-2
1458285591909416,-2,0,16,16,-3,4,19,-3
1458285591921681,-1,1,-10,-11,-1,-1,-13,0
1458285591921681,3,3,-4,-9,-4,1,21,6
1458285591930703,-6,-7,-19,-17,-1,-4,1,-10
1458285591930703,1,-4,-3,5,1,1,-13,-2
1458285591944215,-1,-3,-13,-11,-3,-2,5,4
1458285591944215,-4,5,11,7,0,-1,-7,-4
1458285591953220,-3,-12,5,-4,-3,-2,-8,-7
1458285591953220,-3,2,-6,1,-1,-2,-3,-1
1458285591968287,-2,-7,-8,10,0,0,7,-2
1458285591968287,-4,1,4,-8,-4,-5,-6,-1
1458285591969764,1,3,-18,-4,-1,0,6,2
1458285591969764,1,-4,5,-19,0,0,-4,-1
1458285591981792,-1,1,0,-3,-8,-1,1,-1
1458285591981792,2,0,15,14,8,3,1,4
1458285591990780,0,2,-3,-8,4,1,3,1
1458285591990780,-5,-5,-2,-8,-14,-8,-6,-6
1458285592004790,-2,2,10,-2,6,-1,0,-3
1458285592004790,0,-4,-2,6,-6,0,2,1
1458285592005790,0,2,4,-4,2,1,2,0
1458285592005790,0,0,-1,16,0,-5,-7,-1
1458285592027381,0,-3,-12,-15,-3,0,3,1
1458285592027381,0,-4,-3,-6,-3,-1,0,3
1458285592028346,0,2,-1,4,0,0,-1,0
1458285592028346,-2,-5,-6,3,-1,0,-1,0
1458285592049930,1,0,3,3,-1,0,2,2
1458285592049930,-2,-3,-6,-7,2,-2,-4,-1
1458285592050972,2,2,-1,-7,-2,-3,-3,-2
1458285592050972,-1,-1,2,7,3,0,-1,-1
1458285592064963,0,0,-2,0,0,-2,1,-1
1458285592064963,1,0,1,-3,-4,-3,-2,-2
1458285592065463,0,-2,-8,-11,1,2,1,-2
1458285592065463,-1,-2,13,32,6,-1,-2,-1
1458285592087397,2,2,-30,-22,-15,-4,-2,-1
1458285592087397,-2,-3,7,-5,-13,-6,-2,-1
1458285592088397,1,0,16,35,29,9,3,3
1458285592088397,-2,0,-7,-22,5,1,-1,-3
1458285592109909,0,0,15,6,3,-2,0,-2
1458285592109909,0,1,2,-5,-2,0,1,1
1458285592109909,0,-2,-20,-18,-14,-3,0,-1
1458285592109909,1,10,21,21,1,2,-3,0
1458285592124898,-3,-8,-7,3,0,0,2,-2
1458285592124898,1,-1,-26,-6,-2,0,0,0
1458285592125833,-1,-8,-1,-17,-9,-2,-1,-1
1458285592125833,-2,-9,-8,-13,-4,-3,-2,0
1458285592147367,-2,1,5,3,-1,-2,-1,-1
1458285592147367,0,1,8,3,1,1,-1,-1
1458285592148368,-4,-1,-3,1,-1,0,0,0
1458285592148368,1,1,-9,1,-3,-2,1,-1
1458285592169884,0,0,3,7,1,-1,-2,0
1458285592169884,-1,-2,-5,-5,1,-1,0,-2
1458285592169884,0,4,9,3,-3,-3,-4,-3
1458285592169884,-1,-10,-17,-16,-6,-1,-3,-2
1458285592186337,-2,-3,1,3,3,0,0,0
1458285592186337,-2,2,7,3,5,1,-2,-1
1458285592187355,-1,3,-10,-2,-7,-4,-1,1
1458285592187355,-3,0,-4,8,2,0,0,0
1458285592207350,1,0,-1,-5,-2,0,-2,1
1458285592207350,-2,-1,-2,-9,-6,-1,-2,-3
1458285592208350,0,1,2,-2,-5,0,0,0
1458285592208350,-1,-5,-3,-4,-7,-4,0,0
1458285592237908,2,2,7,10,19,5,3,3
1458285592237908,2,8,5,11,-3,2,-1,0
1458285592238911,-5,-22,11,6,-3,-3,-6,-3
1458285592238911,-2,1,-1,9,5,-1,0,-1
1458285592244414,-5,-3,-11,-26,-11,-2,-1,-4
1458285592244414,-3,-4,2,1,1,-1,-2,-2
1458285592252407,-1,-2,-2,0,-3,-1,0,-1
1458285592252407,-1,2,11,13,3,2,-1,-2
1458285592267418,1,-1,4,-1,-1,-1,-1,-1
1458285592267418,0,0,-7,-11,3,-1,0,0
1458285592268417,1,3,5,8,-4,-2,-2,-3
1458285592268417,-1,-2,0,-6,-4,-1,-2,-1
1458285592290433,-1,1,-1,9,0,-1,-2,-2
1458285592290433,1,-2,-7,-15,-2,1,-1,0
1458285592297444,2,3,-3,-10,0,0,1,-1
1458285592297444,1,4,-1,2,1,-3,-4,-1
1458285592304948,-1,-1,-7,-1,-2,0,2,-2
1458285592304948,-3,-6,0,11,0,1,0,-3
1458285592305950,-1,1,-2,-20,-4,-2,-1,-1
1458285592305950,-2,-4,-9,-3,1,2,0,-4
1458285592327465,0,2,3,3,-3,-2,-2,-1
1458285592327465,-3,-6,-4,-7,-5,-4,-3,0
1458285592328465,0,1,15,19,5,-1,-1,-2
1458285592328465,2,4,-16,-11,1,2,0,-1
1458285592349993,-4,-4,4,1,-3,1,1,0
1458285592349993,-1,-3,2,0,4,1,0,0
1458285592350477,-4,2,-17,-8,1,-1,0,-1
1458285592350477,-1,0,3,13,0,-2,-2,0
1458285592373023,-4,-13,10,-9,-4,-4,-4,-5
1458285592373023,-2,-2,-5,0,1,1,-1,-2
1458285592374027,0,3,-4,-2,1,0,2,2
1458285592374027,-3,3,-4,-4,1,1,2,1
1458285592387489,-2,-8,-7,-9,-3,-1,-4,-1
1458285592387489,0,-2,4,19,-1,-2,-1,0
1458285592388439,0,-3,4,-17,-3,-2,-2,-3
1458285592388439,2,3,10,0,-2,-3,-2,-1
1458285592409647,-4,-3,-22,-22,-6,-4,-4,-3
1458285592409647,1,2,4,-2,-4,-2,-3,-2
1458285592409647,0,2,-6,3,1,0,0,0
1458285592409647,-2,-2,3,2,1,0,1,0
1458285592425010,2,-10,7,4,2,2,0,-1
1458285592425010,-1,0,-6,-7,-2,-3,-1,-2
1458285592425511,0,-1,-4,-2,-3,1,2,0
1458285592425511,-2,-2,-2,-5,-4,-1,-2,-3
1458285592447584,0,4,5,9,2,-1,-2,1
1458285592447584,-1,-3,-12,0,5,1,2,0
1458285592448040,-1,13,21,3,-1,-2,-2,-2
1458285592448040,-4,-21,-17,-6,-3,-4,-1,-1
1458285592469578,4,7,-9,-1,2,1,0,-1
1458285592469578,-2,-7,0,-12,-4,-5,-2,-3
1458285592469578,-1,-4,-11,-3,-1,-1,-1,1
1458285592469578,-4,-3,5,-1,-4,0,-1,-1
1458285592484988,0,6,-3,-4,-1,-1,1,1
1458285592484988,-2,2,5,11,0,-1,0,-3
1458285592485928,0,-2,2,5,2,3,0,-3
1458285592485928,2,11,1,-10,-12,-4,-1,-3
1458285592507324,1,-8,-1,0,4,2,-1,-1
1458285592507324,-2,5,2,0,11,2,-1,-1
1458285592508270,-2,-7,1,9,3,0,-2,-1
1458285592508270,-2,-8,5,-3,1,1,-1,2
1458285592529807,-1,5,-16,-7,-12,-5,-3,-2
1458285592529807,2,1,-4,-3,-4,0,0,0
1458285592530807,-1,2,10,3,0,-1,0,-1
1458285592530807,-3,-11,-29,-8,-2,-1,3,11
1458285592544828,-2,7,6,4,-3,-1,-2,-2
1458285592544828,2,-5,-5,-4,0,0,0,2
1458285592545829,-4,-4,-8,-2,-3,-2,-3,-2
1458285592545829,0,9,14,3,2,0,-1,-3
1458285592567502,-3,-1,3,3,1,-2,2,2
1458285592567502,-4,0,-4,-5,-2,-2,-1,-1
1458285592568445,0,-1,1,-10,-2,0,-3,-2
1458285592568445,0,-3,4,1,-1,-1,0,-1
1458285592589602,3,5,5,6,5,0,-1,-1
1458285592589602,-1,-7,14,17,-3,-3,-3,-2
1458285592590825,-1,0,-15,-9,-4,-4,-3,-3
1458285592590825,-1,2,-8,-12,1,-1,-2,-4
1458285592604855,-3,-10,-5,2,-1,-1,-2,-3
1458285592604855,3,6,1,1,-4,-1,1,0
1458285592605866,0,-4,-2,-8,-2,-2,2,0
1458285592605866,-2,3,7,11,2,-1,-1,-3
1458285592627424,-1,4,4,-4,-3,1,-3,-3
1458285592627424,0,-7,-12,-10,-3,0,-1,0
1458285592628438,-3,-10,-6,2,-1,-1,-2,-1
1458285592628438,1,1,-7,-11,-3,-4,-2,-4
1458285592649438,0,3,14,17,1,0,1,1
1458285592649438,-3,-2,0,-1,0,-1,0,-2
1458285592657438,1,6,-3,-10,-10,-2,0,-1
1458285592657438,2,-4,12,3,-7,1,-1,-2
1458285592663963,1,3,-2,12,25,9,3,1
1458285592663963,0,8,15,7,7,-1,0,-4
1458285592672469,3,5,-26,2,0,-1,-1,2
1458285592672469,-1,-7,23,-7,-8,-5,-3,-4
1458285592687507,-1,4,7,-1,-7,-5,2,1
1458285592687507,-1,-3,-10,-13,-1,0,-2,-1
1458285592687995,0,4,6,3,1,0,-1,1
1458285592687995,1,4,0,9,0,1,-2,-2
1458285592709879,-3,-9,-9,-13,-9,-2,-2,-2
1458285592709879,0,-2,0,-3,-2,1,-2,-1
1458285592710895,0,2,7,1,-1,-1,1,0
1458285592710895,-1,0,-8,-8,0,0,0,2
1458285592724494,-1,-5,2,-2,-2,-3,-2,0
1458285592724494,0,3,-10,-6,-4,-2,1,1
1458285592732501,-3,-9,8,6,2,0,-1,-4
1458285592732501,-6,-11,-5,4,6,3,0,-5
1458285592747537,-3,-4,-5,-4,-1,-1,-2,-3
1458285592747537,-3,4,5,-13,-6,-2,-4,-3
1458285592747999,-2,-14,7,23,5,-1,-2,-4
1458285592747999,3,4,-12,-8,-1,-1,2,-1
1458285592770043,1,-3,-3,-7,-5,-2,-1,0
1458285592770043,1,2,-1,-6,-3,1,0,-1
1458285592770558,-3,2,5,-2,2,1,-1,0
1458285592770558,0,-3,-12,-1,-1,-2,-1,1
1458285592793288,-1,-3,-2,4,-2,0,-3,-3
1458285592793288,-2,-2,-5,-6,0,0,0,0
1458285592793787,1,1,-1,-10,-3,-2,-1,-2
1458285592793787,-2,1,9,13,2,-1,0,0
1458285592807297,-1,-5,-4,-4,-3,-3,0,-2
1458285592807297,2,7,15,26,2,0,2,0
1458285592808298,-2,-6,-23,-54,-7,-1,1,0
1458285592808298,3,9,10,2,-2,-2,-4,-2
1458285592829819,0,0,-6,-6,0,-1,0,2
1458285592829819,-2,-7,-8,3,-1,-1,-2,-2
1458285592830835,1,5,5,13,1,-1,-1,2
1458285592830835,1,2,-6,-3,1,0,-1,1
1458285592844345,-2,2,-3,-4,-3,-3,-3,0
1458285592844345,0,-8,2,5,0,-2,-2,1
1458285592852352,-5,-9,10,4,-2,-1,1,0
1458285592852352,-3,-2,-24,-10,1,-2,-2,-1
1458285592867362,-4,4,14,14,-3,-2,-1,-5
1458285592867362,-1,0,-17,-15,-4,-2,1,-3
1458285592868362,0,2,5,9,2,1,0,-1
1458285592868362,-4,-8,1,4,0,1,-1,-2
1458285592889396,2,7,-1,-9,-1,-2,0,0
1458285592889396,-4,-14,-4,-6,-5,-1,0,-2
1458285592890892,-1,0,-6,-1,0,1,-2,0
1458285592890892,3,11,8,8,-3,-4,-2,-1
1458285592904261,-1,2,-6,-11,0,0,0,0
1458285592904261,-1,-9,2,1,0,-2,-3,0
1458285592912220,-1,-2,-4,2,0,1,-2,-3
1458285592912220,-2,-4,-6,-1,2,3,0,-2
1458285592927653,0,4,4,-6,-4,-5,-3,-3
1458285592927653,-3,2,-15,2,0,0,1,-1
1458285592928163,-3,-5,6,-6,-2,-2,-2,0
1458285592928163,-5,-3,7,4,-1,0,-1,0
1458285592950170,2,0,-4,3,0,0,-2,-1
1458285592950170,-2,7,8,-3,-4,-1,-2,-2
1458285592950672,1,-1,1,-1,4,0,-2,-2
1458285592950672,0,-6,-15,3,10,5,0,1
1458285592964038,-3,-4,8,9,0,-1,-2,0
1458285592964038,-1,-4,-1,0,1,0,-3,-3
1458285592972564,1,4,-2,1,-4,-2,0,-1
1458285592972564,0,0,0,-5,-2,-1,-2,0
1458285592987561,-2,-12,-9,-4,0,1,2,-1
1458285592987561,2,13,7,-5,0,-2,-4,0
1458285592988077,-1,-6,-8,-1,-1,0,0,0
1458285592988077,-3,-1,4,-3,-2,-2,-2,-2
1458285593018155,-3,-2,-1,2,0,0,-3,-2
1458285593018155,-1,-2,-2,5,-1,-2,-1,0
1458285593019118,-1,2,0,3,2,0,0,-2
1458285593019118,0,4,4,-3,-3,-2,2,1
1458285593033184,0,-7,-10,-5,-1,-1,-2,-1
1458285593033184,0,6,6,0,1,-1,-1,-2
1458285593034166,-2,0,-9,0,0,0,-1,-2
1458285593034166,-2,-1,-2,-2,-2,-2,0,-2
1458285593048169,0,1,2,-1,-1,-4,-6,-8
1458285593048169,-1,-6,-1,-2,0,2,-12,-3
1458285593049169,1,1,3,3,0,-2,23,10
1458285593049169,-2,-8,5,-2,-3,1,-5,-3
1458285593069936,1,4,-8,-1,-1,0,4,3
1458285593069936,-1,-1,-16,-6,-1,-2,-7,-4
1458285593070939,0,9,14,9,-2,-2,-9,-4
1458285593070939,0,-3,-3,-1,0,0,4,1
1458285593093484,-3,-8,5,0,1,1,0,0
1458285593093484,-3,1,-2,-6,-3,-2,-14,-2
1458285593093983,-3,-4,-2,-4,-1,0,5,-6
1458285593093983,2,5,5,1,0,-1,2,0
1458285593107494,-2,4,2,0,-1,1,-3,-2
1458285593107494,0,-6,-6,-6,-1,-2,4,1
1458285593108490,0,9,-2,-2,-1,-1,-6,-2
1458285593108490,2,3,2,-3,-4,-3,-4,-2
1458285593130020,-7,-27,-10,-4,0,0,2,-1
1458285593130020,0,-4,0,6,-1,-2,6,1
1458285593130507,-1,1,-8,0,0,0,-4,-1
1458285593130507,-3,-6,-3,-25,0,1,-1,0
1458285593153121,-2,5,2,26,-3,-4,-5,0
1458285593153121,0,3,2,-23,-6,-1,8,0
1458285593154140,-2,-3,1,34,1,-3,-5,-3
1458285593154140,0,3,-8,-66,-7,-4,-9,0
1458285593167602,0,0,-2,18,0,2,14,2
1458285593167602,-2,-4,4,13,-2,0,5,0
1458285593168101,0,-2,-4,-27,-4,-2,-11,-2
1458285593168101,-1,-2,-1,17,-1,3,3,-1
