timestamp,emg1,emg2,emg3,emg4,emg5,emg6,emg7,emg8
1463381706830430,-1,-3,-5,-1,-2,-1,-1,-1
1463381706830430,1,8,3,-2,-1,-1,-2,-1
1463381706838452,-1,-8,2,-3,-2,-2,0,-1
1463381706838452,-1,-6,-2,2,0,0,0,-2
1463381706852445,-1,-1,0,3,-1,1,0,-1
1463381706852445,-1,1,6,1,-1,-2,-1,-1
1463381706867457,0,7,-1,-3,0,-1,-1,-1
1463381706867457,-2,-22,-4,0,-1,-1,-1,-1
1463381706882532,0,-6,3,7,1,-2,1,0
1463381706882532,-1,1,-15,-12,-1,0,-2,-1
1463381706890475,1,13,-2,-2,-2,0,-1,-2
1463381706890475,0,-5,4,0,-3,0,0,-1
1463381706905497,-2,-6,1,1,-1,-1,0,1
1463381706905497,0,7,-1,0,-1,-2,1,-2
1463381706912487,-1,-6,-1,-2,-1,0,0,0
1463381706912487,0,0,4,-2,-2,-2,1,0
1463381706920493,-2,1,-5,-5,-1,-1,-1,-1
1463381706920493,0,11,3,3,0,0,0,-1
1463381706927498,-2,-12,-3,0,-1,0,1,-1
1463381706927498,0,3,0,-3,-1,0,-1,0
1463381706943509,-2,-4,1,-2,-2,-1,-1,-3
1463381706943509,-2,0,-2,3,0,0,0,-1
1463381706950514,1,-1,1,4,-1,1,-1,-1
1463381706950514,-4,-1,-5,-11,-3,-2,0,-2
1463381706965525,2,-5,-4,-5,0,-1,1,0
1463381706965525,-1,0,0,0,-1,-2,0,-2
1463381706972530,1,-1,-3,1,1,-2,1,1
1463381706972530,-1,-7,3,-1,-1,-2,0,0
1463381706980536,-2,4,0,-2,-2,-1,-2,-1
1463381706980536,-2,1,2,0,-3,-2,-2,-2
1463381706987540,1,4,-2,1,0,-2,0,-3
1463381706987540,1,-1,-1,1,-1,-1,0,2
1463381707002552,-1,-4,-1,-4,-3,-1,1,-1
1463381707002552,-4,-2,2,2,-1,-1,-3,-2
1463381707010618,0,-5,-3,0,-1,1,0,0
1463381707010618,-3,15,1,-1,-1,-2,-1,-3
1463381707032602,0,-15,-4,1,0,-2,-1,-2
1463381707032602,2,1,1,0,1,-2,-1,0
1463381707055650,-1,0,1,-1,1,0,0,-1
1463381707055650,1,2,3,3,-2,0,0,-2
1463381707062655,1,-3,-2,-4,-1,1,-1,-1
1463381707062655,-2,0,-4,-1,-1,-2,-1,-1
1463381707070660,-1,-4,-1,0,-1,-1,-3,-2
1463381707070660,0,-1,1,-2,-4,1,-2,-2
1463381707100717,0,3,4,1,-2,-1,-2,0
1463381707100717,-3,-3,-5,-3,-1,0,-2,-3
1463381707115792,-2,-6,2,1,-1,-3,-3,-2
1463381707115792,-3,-6,-5,0,-1,0,-2,-2
1463381707122735,0,-2,-2,2,1,-1,0,-1
1463381707122735,0,-2,-2,-3,-3,0,-1,1
1463381707145768,-1,12,5,-2,-1,-1,-1,0
1463381707145768,-1,-6,-6,-3,-1,-1,-1,1
1463381707160768,0,5,-6,-2,1,0,0,-1
1463381707160768,1,-2,-2,-2,1,-2,1,-2
1463381707167769,-1,1,-4,-6,0,-1,-2,-1
1463381707167769,-1,-1,-1,-2,-1,1,-1,0
1463381707175831,-2,-4,-1,1,-2,-1,-4,-1
1463381707175831,-3,1,1,-2,0,-1,-1,-2
1463381707182782,1,-1,0,1,0,-1,1,1
1463381707182782,1,-13,-2,-1,-2,-2,-1,0
1463381707191781,-3,6,1,-3,-2,-1,-1,-2
1463381707191781,-4,5,5,-4,-4,-3,-2,-2
1463381707205790,-1,3,-5,1,-1,0,0,-2
1463381707205790,0,-2,-1,3,-1,-1,-2,-3
1463381707212795,0,-3,-4,0,-1,-1,0,-3
1463381707212795,1,2,-2,0,-2,-2,-2,1
1463381707220815,-2,-2,3,-6,-1,-1,0,0
1463381707220815,0,3,-1,1,-2,-1,0,-2
1463381707235880,0,-10,0,-1,-1,-1,-2,-1
1463381707235880,0,2,3,3,0,1,-1,-2
1463381707250823,1,-1,-5,-4,-2,0,-2,0
1463381707250823,-2,-5,-1,1,0,-1,0,-1
1463381707257889,-2,6,-1,0,0,0,-1,1
1463381707257889,0,-3,2,-6,-3,-2,0,-1
1463381707272997,-2,-3,1,5,-1,-1,-1,-2
1463381707272997,1,3,0,-1,0,0,-1,-3
1463381707280957,-3,-5,-3,-5,-2,1,-1,-2
1463381707280957,-2,9,-4,1,2,0,-2,-2
1463381707287948,1,-2,-2,0,0,-1,-1,-1
1463381707287948,-1,-7,-3,-4,-2,1,-1,-1
1463381707309976,0,4,-1,1,-3,-2,0,-1
1463381707309976,-2,-8,-3,0,-1,0,0,0
1463381707324982,-3,-1,-2,-2,0,-1,0,-2
1463381707324982,1,3,2,-2,-2,-3,-2,-1
1463381707340999,1,-6,-2,0,2,-1,0,0
1463381707340999,-3,-4,-1,-1,0,1,-1,-1
1463381707347999,1,2,1,0,-2,-1,-1,-1
1463381707347999,-1,2,-2,-1,-3,-1,-1,0
1463381707355052,-2,1,2,2,0,-1,-1,0
1463381707355052,0,-8,-4,-7,-2,0,-1,-2
1463381707378015,-4,-10,0,1,-2,-2,-1,-3
1463381707378015,-1,15,-3,-2,-4,-4,-1,0
1463381707393044,-3,-6,2,3,1,0,-2,0
1463381707393044,-1,-1,-2,-4,-1,-1,1,0
1463381707400049,-1,-2,1,1,-1,0,-3,-2
1463381707400049,1,2,0,-4,-2,-1,-1,0
1463381707408054,0,-1,-1,-2,-2,-2,-1,-2
1463381707408054,-1,2,5,8,1,-1,0,0
1463381707423112,0,-1,-2,-1,1,0,0,1
1463381707423112,0,2,5,-2,-1,-1,0,1
1463381707430116,-2,-5,-2,-2,-2,0,-2,-3
1463381707430116,-1,-3,0,1,-2,-2,-2,-2
1463381707438077,-1,3,0,-1,-1,-1,0,-1
1463381707438077,-2,-4,0,-2,-1,-1,0,-1
1463381707453086,-2,2,-11,-5,0,-2,0,-1
1463381707453086,-1,-1,-2,4,0,-1,-2,-2
1463381707460091,-2,-3,1,1,-2,0,-2,-2
1463381707460091,-2,1,-5,-6,-2,-2,-1,0
1463381707468133,0,5,2,2,2,1,-1,0
1463381707468133,-3,6,-4,-1,-2,-1,-2,-1
1463381707475138,-1,4,-4,-1,1,-1,-1,0
1463381707475138,-2,-5,5,2,-3,0,0,-1
1463381707483114,0,6,-1,1,0,-2,-1,-1
1463381707483114,0,-3,0,0,0,-1,-1,-2
1463381707490160,0,-2,0,0,0,0,0,0
1463381707490160,0,4,-2,-6,-3,-1,0,1
1463381707505100,-2,-11,1,0,-3,0,0,-2
1463381707505100,1,0,-3,2,-1,1,-1,0
1463381707513104,0,-2,1,0,-2,-1,0,-2
1463381707513104,0,0,2,-5,-3,-2,-1,0
1463381707520109,-4,-3,-2,1,-1,0,-1,-1
1463381707520109,1,-2,1,0,0,-2,-2,0
1463381707528115,-5,-2,-10,-7,0,0,-1,-1
1463381707528115,1,3,3,0,-2,0,-1,-1
1463381707550144,1,0,4,-1,-2,-1,-2,-2
1463381707550144,-3,-12,2,5,1,-2,-1,-1
1463381707558196,0,1,-3,-2,-2,-1,-1,-1
1463381707558196,0,0,-2,-3,-2,0,-1,2
1463381707573207,-1,8,-1,-1,-1,1,0,-1
1463381707573207,0,-8,1,-3,-2,1,-2,-3
1463381707588159,-2,-3,1,2,-3,-2,-1,-2
1463381707588159,-2,0,-3,-6,-3,-3,-1,-1
1463381707603228,0,-2,1,0,-2,-1,0,2
1463381707603228,-1,-5,-3,-1,-1,-1,1,0
1463381707610237,1,10,-1,1,0,-1,-2,-3
1463381707610237,1,7,1,0,0,0,0,1
1463381707625248,0,-1,-5,1,0,-3,-2,-1
1463381707625248,0,5,-1,-5,-2,0,-3,-2
1463381707640225,-1,-8,4,6,0,0,-1,-1
1463381707640225,-2,5,5,0,-2,-2,0,0
1463381707663239,1,1,4,3,0,-1,0,-1
1463381707663239,0,-1,-8,-1,-1,-3,0,-1
1463381707670279,-2,-13,-5,3,0,-2,-3,-1
1463381707670279,-1,4,-4,-3,-1,-1,-2,-2
1463381707678285,-1,-5,-1,-1,-3,0,1,-1
1463381707678285,-1,-6,-1,-3,-1,1,0,0
1463381707700267,-2,-3,1,-2,-3,-1,1,-2
1463381707700267,0,-1,-9,-4,0,-2,0,0
1463381707715249,0,4,0,3,1,-2,-2,0
1463381707715249,1,-4,0,-3,-4,-3,1,0
1463381707723257,-1,-1,-2,-5,-2,0,-1,1
1463381707723257,-2,-1,3,1,-2,-1,2,-2
1463381707730262,-1,-3,-6,-5,0,-1,0,-2
1463381707730262,-1,8,3,0,-3,1,-1,-2
1463381707745286,-1,-30,-5,0,1,0,0,1
1463381707745286,1,3,-2,0,-2,-1,-2,-2
1463381707753292,-1,-4,-2,1,-1,-1,0,-2
1463381707753292,-2,7,2,-1,-3,-2,-2,-2
1463381707760292,0,0,-5,-9,-2,-1,-1,-2
1463381707760292,-1,-11,4,6,-3,1,-1,0
1463381707783296,-1,6,-3,-3,-2,-1,1,-2
1463381707783296,-2,-7,-2,2,1,0,-1,-2
1463381707790339,4,3,0,0,1,0,-1,0
1463381707790339,0,-2,-1,-4,-1,-1,1,-1
1463381707798307,-2,3,4,6,0,-2,-3,-1
1463381707798307,-1,-6,-6,-5,-1,-3,0,1
1463381707820320,-2,-1,3,3,0,1,-1,-1
1463381707820320,0,4,-2,-1,-2,0,-3,-2
1463381707835332,0,-3,-7,-4,-1,-1,-3,-1
1463381707835332,0,5,6,3,-2,-2,-1,0
1463381707843339,-1,2,-2,1,-1,-2,0,-1
1463381707843339,0,-5,-7,-1,0,1,0,0
1463381707850342,-3,9,-1,-1,0,-1,0,-1
1463381707850342,0,3,0,-4,-2,-1,-1,-2
1463381707865352,0,1,-2,-2,-2,-2,-1,-2
1463381707865352,0,-6,1,3,0,-1,-1,-1
1463381707888382,-1,0,-2,-3,1,-4,0,0
1463381707888382,-2,-2,-3,-5,-2,-1,0,1
1463381707895413,0,0,-4,-2,-1,0,-2,-1
1463381707895413,0,-1,3,2,0,-1,-2,-1
1463381707910399,-1,-3,-6,-6,-1,0,-1,-1
1463381707910399,-3,-4,0,4,0,0,-1,0
1463381707925408,0,-3,0,-2,-3,-1,-1,0
1463381707925408,-1,-1,-1,-2,-2,-1,0,-1
1463381707933404,-2,5,-1,0,-1,-2,-1,-1
1463381707933404,-1,-8,-2,0,0,-1,-2,-1
1463381707940418,-2,-9,-2,2,1,-1,-3,-2
1463381707940418,-1,14,1,-6,-2,0,-1,0
1463381707962435,0,1,-2,2,1,0,0,-1
1463381707962435,0,1,2,1,-2,-2,0,0
1463381707970444,-3,-21,-9,-4,-2,0,-1,-1
1463381707970444,-2,-6,6,1,-2,0,-2,-1
1463381707977449,0,-2,-5,-2,-1,0,1,0
1463381707977449,-1,2,-4,-3,-1,-2,-1,-2
1463381707992444,-2,-1,0,1,1,0,-1,1
1463381707992444,0,-3,-3,-3,0,-2,-2,-1
1463381708007493,-3,-1,0,2,1,-3,-1,-2
1463381708007493,-3,-10,-4,0,0,-2,-2,-1
1463381708015498,0,9,3,0,-1,-2,-3,1
1463381708015498,-1,-2,0,-2,-2,0,-1,-1
1463381708022503,0,-1,0,4,0,-2,-2,0
1463381708022503,-2,-2,-3,-3,0,-1,2,-1
1463381708030509,-1,0,-6,-5,-2,-1,-2,-2
1463381708030509,-3,7,0,0,-2,-1,0,-3
1463381708045540,0,-6,-1,2,-3,-2,1,-1
1463381708045540,0,-5,-2,2,1,1,0,-1
1463381708053503,2,5,0,0,1,-2,1,1
1463381708053503,-2,0,-2,-8,1,0,-1,-3
1463381708068512,1,0,-1,-2,1,-1,-1,1
1463381708068512,-2,6,1,3,-1,-1,0,-1
1463381708075504,1,-26,3,3,1,-1,0,0
1463381708075504,1,6,2,-4,-4,-1,-1,0
1463381708083509,-1,-2,1,0,-3,-1,-2,-2
1463381708083509,-1,0,-3,4,1,-2,0,-5
1463381708090572,-1,6,3,-2,-1,-2,-2,-1
1463381708090572,1,-3,-1,-1,-2,1,-1,1
1463381708112588,1,-2,-3,1,-1,-2,-1,0
1463381708112588,-2,-5,-2,-2,-2,-2,-1,-1
1463381708120600,-4,9,-2,-6,-3,-3,-3,-4
1463381708120600,0,-4,-1,-4,-2,-2,-1,1
1463381708135611,0,2,2,-2,0,1,-2,-2
1463381708135611,-3,-6,-1,2,0,0,-1,-2
1463381708142553,-1,-3,-1,1,-2,-2,-1,1
1463381708142553,0,1,2,0,0,-2,0,1
1463381708150563,-1,-6,-4,-5,-2,0,-1,-1
1463381708150563,-1,1,0,2,-2,-1,-1,-1
1463381708165596,0,2,-2,2,0,0,0,-1
1463381708165596,-2,-7,-4,-1,2,-2,-2,-1
1463381708173603,-1,5,2,-4,1,0,-1,-1
1463381708173603,2,0,1,-2,-1,-3,0,0
1463381708187610,-4,-1,-7,-2,1,-1,0,-1
1463381708187610,-2,7,1,-1,-1,-2,0,-2
1463381708202622,-3,6,2,2,0,-1,-2,-1
1463381708202622,-2,2,0,-3,-1,-2,-1,1
1463381708210599,1,-10,3,-1,-2,-1,-1,0
1463381708210599,-2,4,-7,0,0,-1,-3,0
1463381708217618,-3,1,-1,7,0,-2,-1,-2
1463381708217618,-1,-10,1,-1,-1,-1,-1,-1
1463381708232675,-2,2,-6,-5,-3,-2,-1,0
1463381708232675,0,-11,-5,0,0,-1,-2,-1
1463381708240682,0,-2,2,-3,-2,0,-1,-2
1463381708240682,-1,-1,2,0,1,0,-2,0
1463381708247653,-2,0,1,0,-2,-3,-2,-1
1463381708247653,-1,-5,2,3,2,1,-1,0
1463381708255658,0,1,-6,-8,-2,-1,-2,-1
1463381708255658,-1,2,0,-5,-2,-2,0,1
1463381708262635,-1,-1,-1,1,0,2,-2,-3
1463381708262635,-1,-4,-6,-1,-1,-3,-2,-1
1463381708270655,-2,3,7,8,2,-1,0,-2
1463381708270655,-1,13,-1,-4,-3,0,0,1
1463381708285713,0,-5,-1,-2,-4,0,0,2
1463381708285713,0,2,-7,-3,1,-1,0,-1
1463381708300690,-3,-2,-3,-3,-3,-1,-1,-2
1463381708300690,-2,6,-2,-4,-4,-1,-2,-2
1463381708315788,-3,-21,1,4,-1,-2,-1,-2
1463381708315788,0,3,0,0,0,0,-2,-1
1463381708322768,1,3,-10,-7,-2,-1,-2,0
1463381708322768,-1,0,4,2,-2,-1,-2,-4
1463381708330834,-2,5,1,-1,1,-2,-1,-1
1463381708330834,-1,0,-1,1,0,-1,-1,-3
1463381708345809,1,1,2,1,-2,-1,1,0
1463381708345809,0,-6,4,0,-2,0,0,0
1463381708352814,1,1,-9,-6,0,0,0,1
1463381708352814,-1,0,-2,4,1,-2,0,0
1463381708360807,1,1,2,-2,-1,-1,-2,-1
1463381708360807,0,-3,0,-2,-2,0,1,0
1463381708382805,-3,0,0,2,-3,-1,-2,-2
1463381708382805,-1,4,0,-5,0,0,-2,-1
1463381708390828,-2,-8,-1,0,-2,-1,-1,-1
1463381708390828,-1,-4,2,0,0,0,-1,-1
1463381708397817,-1,-1,-1,-3,0,0,-1,-3
1463381708397817,0,-4,2,4,-1,-1,-2,-1
1463381708405822,1,-13,-4,-1,0,-1,-1,0
1463381708405822,-2,3,-1,-6,-4,-2,0,1
1463381708420832,1,-3,-2,-1,-1,0,0,-1
1463381708420832,-1,5,1,5,-1,0,0,-2
1463381708442848,0,3,-3,2,0,-1,0,3
1463381708442848,-1,-5,3,1,-2,-1,-1,-3
1463381708450854,-2,9,9,5,-1,0,-1,-2
1463381708450854,-2,-5,-8,-6,-1,-2,0,0
1463381708465865,1,-8,0,1,-1,-1,0,-1
1463381708465865,-1,3,0,5,-1,-1,-1,1
1463381708472870,0,7,-4,-2,-2,-1,0,1
1463381708472870,-1,-3,-1,-6,-4,0,-2,-2
1463381708480946,-1,5,2,-2,0,-2,-2,1
1463381708480946,-2,0,-3,1,0,-1,-1,0
1463381708495906,-2,-6,-5,-3,2,-1,0,-1
1463381708495906,-2,8,-6,-1,0,1,-1,-3
1463381708502894,-1,8,-1,-2,-2,-1,-2,0
1463381708502894,-1,-2,4,-1,-1,-1,-1,-1
1463381708510962,-1,-3,-1,4,0,-1,1,-2
1463381708510962,0,-9,-4,-4,0,-2,0,-1
1463381708517962,0,7,4,1,-1,0,-2,1
1463381708517962,0,3,-9,-8,-3,-1,-1,-1
1463381708525972,-3,-1,2,-1,-1,-1,-3,-2
1463381708525972,-1,-6,2,3,0,0,-2,-3
1463381708532926,0,9,4,3,-2,-1,0,-1
1463381708532926,-1,1,1,-1,-3,-1,1,1
1463381708547937,-2,-15,-3,0,0,-2,-1,1
1463381708547937,0,-6,-2,1,0,-1,1,1
1463381708555976,-4,1,1,-1,-2,-1,-2,-4
1463381708555976,1,-3,5,5,-1,0,-1,0
1463381708562994,-1,5,-3,-7,-2,-2,-1,-1
1463381708562994,-1,-11,-5,-4,-3,-2,-2,-1
1463381708578008,2,13,0,2,-1,-1,0,2
1463381708578008,-3,1,-2,-5,-2,-3,-2,-2
1463381708592984,-3,5,-6,-2,0,-2,0,-2
1463381708592984,-2,-8,-5,-5,1,-1,-1,-1
1463381708600970,1,14,7,1,-2,1,1,-1
1463381708600970,-1,0,-2,-3,-1,-1,-2,0
1463381708615972,-1,11,-4,3,-1,-2,-1,-1
1463381708615972,-1,-6,1,-1,-3,-1,-2,0
1463381708622977,1,-7,-4,-4,-1,-1,-1,-2
1463381708622977,-7,-9,-4,2,2,-1,0,-3
1463381708631004,2,19,3,-6,-1,-1,-1,2
1463381708631004,-3,-21,-3,0,-1,0,-1,0
1463381708653018,-1,-6,2,7,0,-1,-1,-4
1463381708653018,-1,7,-6,-3,0,-1,-2,-1
1463381708660021,4,4,3,-1,-4,-2,-1,1
1463381708660021,-9,-14,-4,-4,-4,-4,-3,-2
1463381708675024,2,0,-9,-8,-2,1,0,0
1463381708675024,3,-4,6,8,-1,0,-3,-1
1463381708683019,-4,12,-10,-19,-1,-4,-1,-3
1463381708683019,6,8,1,-2,0,-1,0,1
1463381708690035,6,5,4,7,0,-1,-1,1
1463381708690035,-22,-9,-6,-4,-3,-3,-3,-9
1463381708698040,7,-12,3,3,-1,-1,0,5
1463381708698040,-3,-2,4,0,-2,-1,-1,-3
1463381708705045,-9,12,-12,2,0,0,-2,-3
1463381708705045,14,-3,2,-6,2,0,2,7
1463381708714052,4,-4,12,4,0,0,2,-1
1463381708714052,-14,-7,-2,3,-2,0,-2,0
1463381708728089,13,-10,-21,-1,0,1,3,17
1463381708728089,7,10,16,1,-1,-1,0,-9
1463381708735094,-43,-23,-2,-6,-13,-14,-24,-37
1463381708735094,5,11,49,4,1,3,7,13
1463381708750068,31,-9,-49,10,7,6,11,32
1463381708750068,-19,-46,-9,-5,-1,-2,-3,-16
1463381708758071,-17,5,-9,-12,-3,-7,2,-36
1463381708758071,2,3,52,-2,-5,-1,-1,-3
1463381708773082,-7,-39,-47,-10,-5,-4,-16,5
1463381708773082,56,9,18,27,9,11,8,50
1463381708780088,26,4,-17,-1,5,10,13,15
1463381708780088,-57,6,-32,-18,-4,-12,-32,-73
1463381708795100,50,24,31,10,5,3,7,43
1463381708795100,39,-18,-45,-6,2,1,9,-19
1463381708803164,-4,-11,10,-3,-5,-6,-10,-18
1463381708803164,1,-18,-24,-30,-4,-2,9,29
1463381708810174,51,9,-10,-2,11,13,15,27
1463381708810174,1,-3,61,27,7,6,7,4
1463381708825119,-88,-35,-89,-26,-13,-17,-35,-59
1463381708825119,-23,27,2,11,-4,1,22,8
1463381708833129,20,51,51,3,-5,-2,-5,18
1463381708833129,-14,-53,-92,-44,-2,-1,11,-15
1463381708848199,112,63,122,19,12,10,26,88
1463381708848199,-14,-20,-15,-2,1,2,-7,-34
1463381708855142,-41,10,-94,-16,-15,-14,-26,-46
1463381708855142,77,-48,4,13,-4,-2,7,-28
1463381708863163,-124,-30,3,-27,-15,-13,9,-45
1463381708863163,34,37,41,7,12,11,24,36
1463381708870169,13,-71,-79,17,2,2,-27,35
1463381708870169,32,63,62,-10,0,1,28,77
1463381708885224,91,4,-37,11,11,9,-3,-5
1463381708885224,-67,-63,12,3,-12,-21,-37,-82
1463381708893185,-2,81,4,14,1,5,18,-4
1463381708893185,83,38,-16,-39,11,11,3,71
1463381708908243,-3,-27,-72,76,16,8,-12,34
1463381708908243,-85,-54,75,-82,-29,-36,-42,-85
1463381708915200,58,-33,-4,17,-13,-15,-26,-56
1463381708915200,40,56,11,5,2,13,4,69
1463381708923188,86,30,42,7,3,6,34,7
1463381708923188,-51,34,-2,18,17,4,-1,2
1463381708930192,-69,-12,79,-1,-1,-5,16,7
1463381708930192,106,54,-19,0,2,-9,-16,55
1463381708953210,-128,-56,12,-45,-20,-12,-7,-109
1463381708953210,73,25,-56,8,-12,-6,9,-65
1463381708960231,89,77,28,1,9,13,0,67
1463381708960231,-65,-15,-30,24,2,3,31,-5
1463381708975224,-89,-54,-2,14,1,-13,-42,-46
1463381708975224,-57,60,19,-20,-2,4,10,30
1463381708983230,127,41,1,-5,4,12,9,69
1463381708983230,32,-54,-98,16,0,2,-7,8
1463381708990248,40,27,66,-8,13,27,15,90
1463381708990248,-45,-68,7,29,-9,-9,-29,-59
1463381708998243,-128,-101,-67,-33,-8,-20,2,-87
1463381708998243,31,-26,7,-3,-11,-13,11,-39
1463381709005285,38,-6,92,5,-1,10,7,48
1463381709005285,127,55,28,35,15,10,26,96
1463381709013263,104,19,-8,5,21,46,35,127
1463381709013263,-86,-45,11,-21,-18,-12,44,-128
1463381709028302,127,50,-4,6,-7,-13,-44,48
1463381709028302,-71,0,-76,-10,-20,-29,21,-58
1463381709035306,-106,-21,58,-24,-18,-23,-64,3
1463381709035306,63,-47,-63,32,17,18,10,32
1463381709050277,91,65,86,2,20,23,2,116
1463381709050277,124,72,50,24,22,21,-3,-31
1463381709073355,-48,-73,49,-46,-22,-22,-11,-72
1463381709073355,-120,32,-9,5,-9,2,-77,38
1463381709080363,62,-38,-124,5,-4,-2,103,-4
1463381709080363,7,22,-20,-34,-7,-9,-39,42
1463381709088334,85,27,-20,-60,21,11,-15,-13
1463381709088334,-102,-11,15,54,-10,-21,-22,-82
1463381709103379,72,53,56,51,-2,-10,-56,19
1463381709103379,-37,-56,-5,-38,8,29,-6,17
1463381709110384,-32,21,-45,4,-10,-6,114,-36
1463381709110384,-86,-48,-9,-51,-20,-43,-62,-22
1463381709118355,-1,42,66,18,3,13,74,-10
1463381709118355,39,-59,-64,2,-2,-7,-29,13
1463381709125360,-77,-25,-128,-25,10,10,15,1
1463381709125360,-11,-12,126,12,9,16,2,-9
1463381709133359,100,3,-106,13,-14,-17,-77,24
1463381709133359,-62,-34,36,-37,-1,-14,-19,-29
1463381709148419,10,2,-6,-42,-9,-4,6,-16
1463381709148419,-10,9,-15,57,-17,-31,-66,-51
1463381709155415,98,50,-78,1,6,36,60,79
1463381709155415,118,9,37,13,13,15,87,-43
1463381709170379,-115,33,-41,4,9,-8,-44,-6
1463381709170379,-94,11,78,-45,-4,0,86,-21
1463381709178479,77,13,88,29,-2,-10,-39,9
1463381709178479,22,53,6,23,16,38,91,84
1463381709185546,54,-99,-37,-15,-19,-32,-17,-64
1463381709185546,-23,26,-39,36,16,28,35,107
1463381709192552,66,14,-86,-65,-12,-3,49,99
1463381709192552,-111,-19,-28,7,0,3,-51,-78
1463381709207557,14,27,57,-65,-15,-6,26,-6
1463381709207557,62,-35,35,27,-5,-22,-40,-61
1463381709222556,52,58,8,3,0,-4,-17,2
1463381709222556,75,1,-1,21,0,1,-56,81
1463381709237581,-85,-82,-108,72,-4,-10,61,-43
1463381709237581,127,-51,-3,-87,-3,-2,-5,20
1463381709252616,-43,7,114,26,13,4,-6,-38
1463381709252616,127,1,-4,-16,8,17,-13,85
1463381709260624,-58,52,54,6,-25,-34,-78,-82
1463381709260624,-4,76,-36,-19,8,-5,35,55
1463381709267613,4,-88,-55,38,-12,-1,-59,-16
1463381709267613,-99,74,29,-4,22,14,95,24
1463381709275619,-71,-22,-84,-11,-3,-11,-52,43
1463381709275619,-115,-80,43,-50,-34,-37,17,-118
1463381709282623,11,85,60,33,-25,-46,-128,-22
1463381709282623,50,-69,-110,-21,-29,-28,-17,31
1463381709297671,-35,-97,97,63,26,21,-47,17
1463381709297671,63,-15,-73,-15,10,39,91,54
1463381709305676,-4,-75,49,32,2,-5,-8,-91
1463381709305676,-21,24,-88,34,5,15,-13,68
1463381709312635,74,41,-55,-18,6,50,127,55
1463381709312635,-62,-64,114,-16,7,-20,-89,-128
1463381709327659,-47,-25,-21,-11,-15,-18,28,-23
1463381709327659,-55,-22,-51,54,-5,-12,30,-57
1463381709335666,-128,-92,-56,-20,-16,-49,-30,-52
1463381709335666,85,-56,-128,19,-2,41,79,93
1463381709342671,42,77,-38,-98,-19,-14,-55,85
1463381709342671,40,-34,47,-2,19,25,64,27
1463381709350663,-126,-22,64,17,3,-23,-76,-109
1463381709350663,95,88,97,7,-5,13,-29,74
1463381709365657,-22,72,127,40,9,-4,-15,-126
1463381709365657,91,127,-84,10,-9,31,9,127
1463381709372677,-122,-18,105,-128,8,50,98,-33
1463381709372677,44,-55,46,127,-6,-80,-111,-92
1463381709395738,20,27,-44,74,39,51,84,72
1463381709395738,3,-38,-59,-41,-16,-44,-35,-102
1463381709402743,124,-38,-31,3,-3,18,24,102
1463381709402743,45,95,91,-44,-19,9,-5,49
1463381709425735,-13,-48,-77,-66,12,-4,-65,-91
1463381709425735,80,-5,-44,51,20,8,10,3
1463381709432731,-73,10,6,22,-14,-10,57,-18
1463381709432731,-54,-47,-6,-95,-20,-40,-40,-92
1463381709440727,29,-57,6,109,11,32,-10,91
1463381709440727,-98,31,-49,-35,7,5,24,-22
1463381709447776,44,48,-29,36,-4,-35,-75,-43
1463381709447776,21,-81,15,100,36,31,75,45
1463381709455833,-99,-47,-77,-94,-22,-30,-31,-94
1463381709455833,43,2,-40,39,6,10,94,59
1463381709462776,82,35,69,-33,-5,43,127,94
1463381709462776,-65,-91,28,2,25,14,-21,-37
1463381709477803,-119,27,42,10,-13,-26,10,-5
1463381709477803,110,-35,-67,-30,4,24,70,17
1463381709485952,-113,-69,55,-117,-38,-41,-75,-66
1463381709485952,41,80,-37,37,0,-14,-128,-13
1463381709492958,124,-7,-41,67,-3,37,65,92
1463381709492958,-127,-45,68,-86,-57,-111,-128,-128
1463381709507913,8,109,-79,107,74,33,65,90
1463381709507913,15,-32,1,57,11,47,41,113
1463381709515976,14,-128,46,-49,13,-22,-11,-51
1463381709515976,54,127,-108,77,1,14,-47,20
1463381709530924,108,69,-28,40,-48,18,112,88
1463381709530924,-128,-15,33,-98,-51,-107,-128,-102
1463381709537956,78,-74,-27,105,40,29,35,-28
1463381709537956,-128,-41,16,3,-21,-11,-11,-3
1463381709545963,127,102,32,-31,21,35,62,99
1463381709545963,-73,-22,9,-44,-27,3,-65,-28
1463381709552967,67,-74,10,-17,17,7,70,65
1463381709552967,47,127,-18,-6,20,24,88,69
1463381709567951,18,-29,-1,-18,-28,-61,-107,-87
1463381709567951,-45,-15,-52,-49,8,51,99,106
1463381709575956,77,-73,53,-46,-34,-22,-51,-107
1463381709575956,73,87,60,3,-2,-5,43,29
1463381709590977,65,44,-54,43,46,72,79,115
1463381709590977,-8,-16,48,22,22,-45,-50,-91
1463381709597982,7,-56,-84,-25,-26,-31,-106,-14
1463381709597982,-14,-113,75,28,-37,8,69,33
1463381709605988,43,-64,-8,-30,-37,-25,7,-58
1463381709605988,-22,-5,-22,40,28,-2,-31,-13
1463381709613019,18,8,33,6,8,16,-76,22
1463381709613019,-64,-20,-121,-3,48,-15,-115,-128
1463381709628006,-76,41,-41,30,-12,-5,48,9
1463381709628006,-17,80,-34,6,0,50,109,127
1463381709635996,9,-8,-47,-78,-16,-12,-28,-20
1463381709635996,126,-24,50,-9,-19,32,-33,80
1463381709651009,-90,-66,38,6,16,-74,-116,-128
1463381709651009,127,-23,-32,62,19,47,76,120
1463381709658077,36,31,1,-11,-29,-6,62,76
1463381709658077,116,31,-27,20,29,16,-52,-48
1463381709666169,-51,2,-66,31,6,29,32,21
1463381709666169,-77,26,78,-54,-28,-4,22,-9
1463381709673143,-14,-7,17,51,9,-36,-24,-54
1463381709673143,-128,16,34,66,38,33,69,54
1463381709688153,18,64,-19,-47,-43,1,57,-2
1463381709688153,-63,26,-34,-31,-10,-23,-96,-42
1463381709695159,22,6,-49,58,75,85,54,127
1463381709695159,-128,-9,-13,-30,-60,-111,-70,-128
1463381709710230,7,-11,4,21,-5,16,-54,127
1463381709710230,-57,-26,-55,-106,-26,5,64,-41
1463381709718174,7,-31,38,-55,-24,-78,-120,-61
1463381709718174,119,-4,-14,-13,-21,56,19,119
1463381709725178,-43,47,42,-98,-17,-70,-69,-111
1463381709725178,-7,-19,-21,117,53,12,-31,59
1463381709733200,-119,25,23,38,-19,10,51,-51
1463381709733200,-4,-38,-62,-61,16,-14,-17,-16
1463381709748206,-54,-41,13,-31,-37,25,111,7
1463381709748206,-42,17,13,-88,-17,-33,-32,-43
1463381709755260,16,-13,-9,38,31,40,45,-37
1463381709755260,-58,-25,26,28,-7,-22,-39,-26
1463381709770271,-29,12,-79,26,22,50,51,53
1463381709770271,-54,-41,-6,30,23,-49,-39,-123
1463381709778233,23,24,-27,-17,-44,-19,52,-14
1463381709778233,32,-7,42,-39,-40,11,91,100
1463381709785219,-3,-19,-28,25,31,-55,-115,-110
1463381709785219,39,34,-33,89,-8,36,69,127
1463381709793247,-6,17,16,-57,1,21,43,20
1463381709793247,55,-1,-34,61,38,-27,-66,-85
1463381709808299,-14,21,-31,-5,-6,47,53,127
1463381709808299,27,-32,18,-53,-55,-36,-127,-80
1463381709815304,45,-37,-15,53,24,-36,-39,-78
1463381709815304,70,36,-52,16,-9,66,127,99
1463381709830268,-8,-32,99,-83,2,-60,-109,-7
1463381709830268,27,-30,-47,85,43,8,20,-43
1463381709838321,29,-3,44,-8,-50,-13,-62,72
1463381709838321,-9,34,-116,-62,29,42,103,88
1463381709845325,-44,-20,6,9,-37,-80,-105,-94
1463381709845325,25,24,-11,-34,-19,55,90,127
1463381709853330,0,5,6,-74,-10,-23,39,-37
1463381709853330,-104,2,-28,57,12,-38,-62,-109
1463381709868295,-14,60,-69,-23,-6,95,127,126
1463381709868295,99,-106,127,-46,42,-18,-14,-92
1463381709875300,-128,29,-7,127,46,-27,-3,-73
1463381709875300,-31,3,34,-55,-59,0,-43,65
1463381709890357,2,14,15,-12,24,28,46,-3
1463381709890357,-57,19,-15,89,23,-16,12,-59
1463381709898363,28,6,-53,-68,-38,21,6,127
1463381709898363,-128,-32,97,-24,-26,-33,-8,-128
1463381709905466,62,12,28,96,56,-21,-105,6
1463381709905466,10,20,-47,-2,23,54,28,127
1463381709920443,37,-39,41,-49,-54,-20,-50,-15
1463381709920443,-117,67,-94,-41,15,-37,1,-60
1463381709935453,-19,-11,-60,55,-1,13,59,69
1463381709935453,-68,19,47,-90,14,43,-29,69
1463381709950435,-25,36,-58,43,26,-42,-66,-85
1463381709950435,126,-13,38,48,-34,15,50,127
1463381709965444,47,-36,-50,-71,-51,55,96,39
1463381709965444,-34,34,93,-52,38,-65,-15,-79
1463381709973450,-42,-6,2,-58,31,-28,-59,-128
1463381709973450,-7,0,-91,82,-28,27,50,17
1463381709980455,60,11,6,-107,-64,59,35,81
1463381709980455,-79,-51,10,0,28,-118,-128,-128
1463381709995467,11,10,-29,118,46,70,45,127
1463381709995467,-77,-38,127,-124,-102,-60,-29,-97
1463381710017622,-22,-25,43,-122,-65,-110,-85,-127
1463381710017622,-9,-26,-50,127,62,-1,-103,27
1463381710025622,47,24,-27,-80,-73,23,60,82
1463381710025622,-17,35,-48,-38,18,7,-12,0
1463381710032627,-58,-28,-56,86,-4,0,-14,-51
1463381710032627,-50,50,80,-69,-35,12,40,86
1463381710040661,23,39,14,-32,42,3,-14,-98
1463381710040661,-17,34,45,85,48,26,-12,35
1463381710055670,-59,22,19,-92,-37,-4,97,51
1463381710055670,-56,-60,9,43,-35,-64,-3,-82
1463381710070682,-16,-9,18,14,4,-17,-64,-107
1463381710070682,120,-5,-84,72,21,15,-35,7
1463381710077648,25,-23,-22,-76,-31,-10,18,30
1463381710077648,80,-21,58,-31,-30,-63,-49,-94
1463381710085653,-16,25,-43,126,103,60,111,74
1463381710085653,-37,-3,-24,2,-66,21,-14,-30
1463381710092676,-32,23,-34,-24,33,31,-50,3
1463381710092676,-107,15,23,53,-10,-72,-89,-54
1463381710107708,-3,16,-25,29,26,31,-36,36
1463381710107708,6,-18,-17,-14,56,16,88,48
1463381710115714,-7,0,-66,-27,-78,-9,52,26
1463381710115714,-3,-10,50,-113,-85,-60,-16,48
1463381710130745,-29,0,10,51,59,33,45,51
1463381710130745,38,-19,29,-15,-1,-5,19,69
1463381710137749,-99,-13,-34,28,36,41,37,-11
1463381710137749,26,14,-60,-22,16,-19,-63,-72
1463381710145756,-84,-5,-22,-14,-58,-69,-38,-102
1463381710145756,101,6,-116,-75,-17,69,32,127
1463381710152762,-7,-3,42,-30,51,-32,-9,-77
1463381710152762,-20,-19,43,127,15,-11,-27,-37
1463381710167711,56,12,-51,-36,15,38,-42,78
1463381710167711,-43,-25,96,-29,-79,-90,-72,-82
1463381710175737,54,20,45,45,29,13,-21,84
1463381710175737,60,3,-91,31,8,38,73,31
1463381710190792,16,27,19,-31,-15,-3,-9,0
1463381710190792,-56,43,-73,-47,17,88,94,127
1463381710197797,-4,-63,58,-24,-7,-118,-128,-128
1463381710197797,-128,15,-56,95,51,46,64,98
1463381710205803,79,9,-32,-52,-56,35,75,125
1463381710205803,-89,-9,127,-47,-34,-49,-83,-127
1463381710212807,20,1,-21,33,50,6,-27,28
1463381710212807,89,31,-10,56,24,83,127,127
1463381710227783,4,-44,48,-60,-26,-3,59,16
1463381710227783,41,-29,-66,36,8,-57,-49,-90
1463381710242794,36,2,27,65,-22,34,32,84
1463381710242794,43,-22,56,-73,0,-15,4,37
1463381710257777,-39,41,38,58,21,22,-32,29
1463381710257777,127,7,-94,-66,-7,-12,-22,19
1463381710272788,26,-20,-11,9,-29,-17,1,41
1463381710272788,0,28,-55,-27,-8,-13,-45,-104
1463381710287797,-31,9,-54,-35,-32,-31,-44,-45
1463381710287797,23,-34,76,30,29,82,108,127
1463381710302807,-17,-14,-66,14,13,-48,-75,-84
1463381710302807,-71,10,6,78,20,0,-20,-2
1463381710310812,-50,-22,1,-2,16,15,36,45
1463381710310812,-73,17,-45,-7,-14,-22,-28,-3
1463381710325822,-14,-43,20,28,13,-48,-35,-128
1463381710325822,9,-21,-13,44,14,8,50,-28
1463381710340836,30,9,7,-13,-20,75,53,63
1463381710340836,-12,3,18,-49,-23,-77,-60,-39
1463381710347913,14,1,-13,7,-3,-2,-3,77
1463381710347913,-52,49,-45,78,63,54,110,112
1463381710370890,-17,-1,29,-7,-30,-99,-128,-102
1463381710370890,-16,13,-14,21,11,76,90,101
1463381710378911,-47,21,-22,-57,-18,3,44,12
1463381710378911,0,15,-26,21,26,0,64,52
1463381710392967,14,8,-14,68,14,-14,-40,-34
1463381710392967,-43,-20,-31,-48,-29,-4,-32,-9
1463381710407982,-26,19,-8,-11,7,4,-15,-2
1463381710407982,-25,-18,8,1,28,33,-1,4
1463381710422991,-5,-14,0,-7,1,-13,44,-54
1463381710422991,-1,-19,35,-9,-25,-22,-95,-29
1463381710430934,94,13,-32,5,25,45,18,107
1463381710430934,-47,-78,29,-30,-32,-53,-96,-119
1463381710452951,-35,21,-7,17,-8,-35,20,-33
1463381710452951,84,-6,-6,-15,-23,-9,-33,28
1463381710475965,6,-19,24,2,8,-1,2,65
1463381710475965,-57,29,-25,24,6,39,38,-13
1463381710482970,-5,-1,11,35,40,21,-9,-36
1463381710482970,-20,-18,-4,34,-1,0,6,-10
1463381710498044,-15,4,-15,52,-5,-33,-9,-88
1463381710498044,-7,0,19,8,-5,0,11,-36
1463381710513053,0,6,-37,-17,-14,6,25,83
1463381710513053,-22,-23,10,-56,-35,-15,-50,-52
1463381710528002,-7,1,15,-8,-13,-35,-81,-21
1463381710528002,90,16,18,25,0,-16,-2,118
1463381710543028,-31,-38,8,-3,17,23,75,37
1463381710543028,-125,-14,-52,-2,0,37,9,-122
1463381710550033,-35,8,14,3,-6,18,17,-10
1463381710550033,-2,8,-52,-43,-5,-11,-13,26
1463381710573095,32,25,28,67,28,7,-7,41
1463381710573095,4,-5,-39,8,23,22,37,30
1463381710581039,-22,-7,34,-16,-17,-21,-9,-25
1463381710581039,26,-1,-12,14,5,9,9,-2
1463381710611063,-23,-16,-7,-12,6,1,-4,8
1463381710611063,79,-5,44,14,15,44,11,94
1463381710633092,-22,9,12,-14,-10,-73,-4,-22
1463381710633092,-50,-1,20,16,14,66,-36,8
1463381710648152,-32,-12,20,-9,10,43,7,-12
1463381710648152,-42,-12,28,38,2,-15,31,-12
1463381710663127,7,-10,1,11,-8,9,26,26
1463381710663127,63,-10,-32,-27,-13,-20,2,36
1463381710671104,27,-15,8,2,14,24,-19,10
1463381710671104,62,36,0,-1,0,-10,-9,17
1463381710693148,-106,0,-25,-11,-11,0,34,-30
1463381710693148,119,-10,4,4,4,9,30,108
1463381710701141,-14,-36,-16,-2,-5,-9,-4,-96
1463381710701141,90,-4,28,1,2,-1,-37,-14
1463381710715150,26,-9,9,6,5,40,44,65
1463381710715150,-34,-6,8,-15,-3,-13,6,-40
1463381710730206,-6,-17,-31,7,0,-7,-14,9
1463381710730206,-69,15,-3,-7,-2,-10,-2,-40
1463381710745217,50,36,23,15,10,9,-5,28
1463381710745217,-21,1,-37,-17,-9,-2,8,10
1463381710753223,7,-26,18,-18,-19,-12,6,-38
1463381710753223,-107,5,7,-9,-5,-11,-26,-33
1463381710768234,-25,9,-6,-9,2,-8,-34,-41
1463381710768234,11,15,20,7,0,-9,-23,1
1463381710790194,-30,5,-31,-13,-4,-10,-37,-41
1463381710790194,-100,-14,8,8,4,22,7,-8
1463381710798199,23,-14,-12,-1,-5,-23,3,34
1463381710798199,55,5,13,-3,-6,-23,11,37
1463381710813268,29,11,10,6,15,10,6,8
1463381710813268,6,-20,-10,20,6,0,-16,-43
1463381710820239,8,-18,-15,-11,-6,12,-2,8
1463381710820239,-14,3,-13,-9,-7,0,11,-5
1463381710843254,47,-18,-47,-20,14,14,23,-2
1463381710843254,20,13,69,10,-11,-16,-26,-48
1463381710858297,48,-17,11,6,-1,5,-3,50
1463381710858297,-18,3,-16,-8,6,20,32,16
1463381710873246,-34,9,-8,6,-3,-19,-21,-39
1463381710873246,-64,-17,-11,-8,-3,9,-16,-24
1463381710888320,-39,-32,2,3,5,27,31,2
1463381710888320,-19,8,0,-7,-9,-8,-35,-15
1463381710895326,-25,-32,3,3,-3,0,-15,-43
1463381710895326,9,4,18,14,6,22,12,-7
1463381710910338,0,19,-23,-2,2,25,2,8
1463381710910338,30,-2,-22,-28,-21,-12,-6,11
1463381710918307,8,-6,38,8,11,-2,-1,4
1463381710918307,-1,0,-11,32,17,3,13,3
1463381710933290,11,-23,5,-24,-23,-7,-2,5
1463381710933290,3,14,53,-12,-7,-8,0,-4
1463381710948299,10,-36,24,0,-3,6,-2,3
1463381710948299,9,18,-28,-20,-9,-19,3,-1
1463381710963374,0,17,10,-11,-10,-3,-2,10
1463381710963374,-37,-12,9,-1,-1,-7,-6,-31
1463381710970334,19,-19,-17,3,3,-3,-1,-2
1463381710970334,6,10,8,-5,-2,19,13,3
1463381710985344,-23,13,3,-3,-4,5,-13,-7
1463381710985344,26,-11,-13,8,3,-21,2,14
1463381710993396,-22,-18,-5,-2,-3,-1,-9,-8
1463381710993396,-3,22,10,-5,-3,5,13,-2
1463381711008408,11,-6,-7,-9,-9,-3,-1,0
1463381711008408,9,-5,-7,14,15,4,-3,3
1463381711023371,-14,18,-19,-6,-5,-1,3,-2
1463381711023371,-12,7,17,-1,-3,0,-6,-4
1463381711030377,19,-22,-22,13,16,-1,-2,3
1463381711030377,5,-4,-7,-2,-5,-11,0,0
1463381711046369,-17,4,6,-9,-2,2,1,-3
1463381711046369,-11,-9,-19,-8,-5,5,-1,3
1463381711053393,17,-5,9,-5,-5,-4,-3,1
1463381711053393,0,1,-4,-11,-5,-5,0,-3
1463381711068445,11,-19,-1,6,-3,-21,-18,1
1463381711068445,1,4,3,-5,-2,-6,-2,-3
1463381711083395,-11,4,1,-1,-3,6,1,-2
1463381711083395,-6,-4,-5,3,0,-2,-1,-1
1463381711090460,13,3,4,5,0,-7,2,1
1463381711090460,13,-14,-7,-9,-4,2,1,1
1463381711113481,-9,11,-6,-2,-1,-1,-1,-2
1463381711113481,-8,-12,1,2,2,1,0,0
1463381711120446,9,2,-8,-3,-2,3,2,-2
1463381711120446,6,9,12,-5,-6,-8,-1,3
1463381711150444,6,-12,8,5,-1,0,1,1
1463381711150444,3,3,-5,-14,-6,0,3,-1
1463381711165525,5,-12,-14,1,-1,2,1,0
1463381711165525,1,13,6,-4,-4,0,2,0
1463381711180488,-9,2,-1,-3,-1,-2,-1,0
1463381711180488,-3,0,-6,-6,-4,-5,-5,-3
1463381711188495,9,-3,5,2,0,4,2,-1
1463381711188495,6,9,3,-4,-3,-2,-2,0
1463381711195499,4,8,-2,-1,0,0,-1,-1
1463381711195499,-3,0,15,-1,-2,-2,-3,-3
1463381711210546,4,-9,1,3,-2,-2,1,0
1463381711210546,7,-18,3,-7,-3,0,0,-1
1463381711225494,-8,6,4,1,-1,-3,-1,-1
1463381711225494,-12,-1,-21,-4,2,-3,-1,-6
1463381711248512,4,-2,10,-2,1,0,1,0
1463381711248512,6,11,4,0,-1,0,2,2
1463381711263539,6,2,0,-1,-2,-2,0,0
1463381711263539,-1,2,2,-2,-1,-1,-2,-3
1463381711278554,-4,-2,3,10,2,1,1,0
1463381711278554,-1,-1,16,2,-1,-1,-1,0
1463381711285598,0,-16,-20,-6,-3,-1,-3,-5
1463381711285598,5,10,-3,-5,-4,-3,-2,2
1463381711300609,2,6,2,1,0,1,-1,-1
1463381711300609,0,4,-9,-5,-5,-2,-1,0
1463381711308575,6,-4,36,1,1,2,-2,-3
1463381711308575,1,18,11,0,0,-4,-5,-4
1463381711322575,-12,-10,-32,-3,-2,-4,-2,-1
1463381711322575,-5,-5,3,-5,-6,-3,-3,-3
1463381711330582,4,14,4,-1,1,1,1,1
1463381711330582,1,-3,-3,7,3,1,0,-1
1463381711353602,-1,-1,8,-6,-2,-2,1,0
1463381711353602,-5,-1,-19,9,1,-2,-2,-2
1463381711360660,-2,0,21,-9,-4,-2,-1,-1
1463381711360660,3,1,-12,-4,-3,0,-1,0
1463381711375603,3,5,13,4,3,0,0,-1
1463381711375603,1,-3,4,-3,-3,-3,-1,0
1463381711397679,0,-5,-6,1,0,0,-1,2
1463381711397679,-1,7,6,-2,-3,0,-1,-3
1463381711413646,1,-4,-11,2,1,0,0,-1
1463381711413646,3,8,11,-4,-4,0,1,1
1463381711428670,-5,-2,21,-1,-3,-3,-3,-4
1463381711428670,3,1,-17,-3,-1,1,0,3
1463381711443666,-2,3,-43,7,2,-3,-3,-3
1463381711443666,3,-10,14,-6,-3,-3,-3,0
1463381711473704,-1,5,-13,-9,-6,-2,-3,-4
1463381711473704,1,1,10,0,-2,1,2,-1
1463381711495688,5,9,17,0,-1,0,2,1
1463381711495688,1,7,9,-2,-2,1,-1,0
1463381711510697,2,-15,-26,-1,1,1,-1,-2
1463381711510697,-4,-12,-45,-10,-3,-3,-2,-1
1463381711525706,-3,3,2,-2,0,0,0,-1
1463381711525706,3,3,14,-4,-2,-2,1,2
1463381711540718,5,11,-3,-2,0,-2,0,0
1463381711540718,1,-3,-7,-6,-3,-1,-1,-2
1463381711547723,-2,7,-3,-3,-1,-3,-2,-2
1463381711547723,0,6,17,5,0,-2,-2,-2
1463381711562734,-4,1,-25,-4,-2,0,0,-1
1463381711562734,-4,8,25,-1,-2,-2,0,-3
1463381711570739,6,13,-31,-6,-4,-2,-1,2
1463381711570739,2,2,-31,-7,-3,2,1,2
1463381711585750,-4,9,55,0,-3,-2,-3,-1
1463381711585750,-2,4,-59,1,1,0,0,-2
1463381711592769,4,14,24,2,1,-1,0,2
1463381711592769,3,6,14,-2,2,-1,0,2
1463381711607777,1,10,41,2,-2,1,0,-1
1463381711607777,6,2,-5,-3,-5,0,0,1
1463381711630810,-2,5,-1,1,2,-1,-2,-2
1463381711630810,-2,1,11,1,0,-3,-3,-3
1463381711637815,1,13,-11,1,0,-1,-1,-1
1463381711637815,3,7,15,-2,0,0,1,4
1463381711652826,-5,-5,-17,0,0,0,-1,-2
1463381711652826,0,-7,2,2,2,-1,1,-3
1463381711660844,3,1,-9,-4,-1,-3,1,-1
1463381711660844,2,11,1,-8,-4,-3,-3,1
1463381711675833,4,-2,1,1,1,3,0,0
1463381711675833,-1,-8,3,-2,0,-2,0,0
1463381711690838,0,-9,22,4,0,-1,-1,-1
1463381711690838,0,-10,-6,5,1,1,-1,-1
1463381711705895,0,2,-16,2,0,0,0,0
1463381711705895,-3,1,9,-3,-1,-2,-3,-1
1463381711712900,-3,5,-13,-9,-4,-3,-5,-2
1463381711712900,3,-4,21,-5,-5,-1,1,0
1463381711728866,1,2,1,0,0,1,0,-1
1463381711728866,-3,3,6,-6,-7,-5,-4,-3
1463381711742922,0,-8,3,-2,0,-1,0,-1
1463381711742922,2,-5,12,7,0,0,-1,-3
1463381711750896,1,3,-8,1,1,2,1,1
1463381711750896,2,4,2,-4,-1,0,0,1
1463381711765941,-1,-5,-15,-1,-1,1,-2,-2
1463381711765941,-5,-14,-4,-3,-2,0,0,-1
1463381711772946,-1,-18,7,5,-1,-1,-1,-3
1463381711772946,-2,8,-6,-2,-1,-3,-1,-3
1463381711789901,0,-3,-22,-3,-4,-1,-2,-1
1463381711789901,-2,-17,17,1,-2,-1,-3,-1
1463381711802904,-4,0,-35,-6,-3,-2,-1,-2
1463381711802904,-6,-14,2,4,3,-1,-2,-2
1463381711811975,-2,2,-3,0,0,-1,-1,-1
1463381711811975,2,-4,-2,-3,-2,-3,0,0
1463381711826068,-2,-8,3,-3,-3,-1,-1,-1
1463381711826068,0,1,16,7,1,0,1,-1
1463381711833073,-2,-8,0,6,1,-1,-3,-4
1463381711833073,1,2,6,0,-3,0,-2,0
1463381711848130,0,6,14,-4,-1,-3,3,-1
1463381711848130,4,-7,-5,-4,-2,-2,0,0
1463381711871099,-5,3,12,5,-1,-1,-1,-2
1463381711871099,0,4,-12,-3,1,0,0,-2
1463381711878104,-8,-3,1,-4,-3,-3,-1,-4
1463381711878104,0,-4,1,-3,-3,0,-1,-1
1463381711893162,4,-8,-2,2,0,-1,-1,2
1463381711893162,-3,6,-2,3,2,1,2,-1
1463381711908173,4,5,7,-1,1,-1,-1,1
1463381711908173,1,0,-5,-4,-1,-2,0,1
1463381711916134,2,0,-5,0,-1,-2,-3,-1
1463381711916134,3,12,0,1,1,0,-1,0
1463381711930142,-1,-10,-1,-3,-5,-2,0,-1
1463381711930142,-4,-5,1,2,-3,-2,-2,-1
1463381711938146,-3,5,-10,-1,-1,-2,-2,-3
1463381711938146,-2,-4,9,-2,0,-2,0,-2
1463381711961174,-1,-3,-22,-9,-3,-1,-2,1
1463381711961174,0,13,16,2,0,2,0,2
1463381711975155,-2,1,-13,5,1,2,1,-3
1463381711975155,-2,4,7,-2,-5,-3,-2,1
1463381711990165,4,2,-3,-1,0,1,2,4
1463381711990165,-2,-9,-10,2,0,-3,21,-4
1463381711998188,1,16,4,-3,-6,-6,-14,-7
1463381711998188,-6,-23,-4,2,-2,-2,-3,-5
1463381712020199,2,-2,11,1,-1,2,5,3
1463381712020199,-2,-5,-1,-8,-2,2,0,4
1463381712043262,-5,-2,13,-6,-3,-5,-4,-8
1463381712043262,1,0,-15,-2,-2,-1,-5,-3
1463381712058273,-3,-9,10,5,-1,0,0,-2
1463381712058273,0,14,5,0,-2,1,-2,6
1463381712065278,5,-3,-18,-7,-2,1,3,7
1463381712065278,3,1,33,10,5,0,7,-1
1463381712080252,3,0,-32,-5,-5,-2,-7,-2
1463381712080252,6,-4,4,-5,0,1,4,8
1463381712088258,-7,-3,2,-7,-2,-4,-1,-15
1463381712088258,-30,0,-33,-3,-2,-4,-7,-15
1463381712103252,-7,-2,16,-1,-4,-3,-6,-6
1463381712103252,-2,-27,-59,-5,-5,-2,4,4
1463381712110321,21,8,-2,-1,3,6,10,22
1463381712110321,14,22,13,13,2,3,-5,5
1463381712125284,19,-9,3,12,10,3,9,-3
1463381712125284,-66,-3,34,-11,-5,-6,-14,-25
1463381712133290,-7,-21,-4,-12,-9,-9,7,-9
1463381712133290,44,-1,9,-4,-4,4,19,48
1463381712148338,33,11,-24,10,1,6,-5,35
1463381712148338,35,8,-17,-2,10,0,5,-23
1463381712163349,-84,-1,26,2,-1,-8,-10,-76
1463381712163349,-31,-11,7,-28,-13,-10,-16,-33
1463381712185318,35,34,16,1,1,6,-33,29
1463381712185318,-23,-6,-41,6,2,0,62,-37
1463381712200312,-96,-32,-34,-21,-15,-22,-47,-94
1463381712200312,-7,12,74,12,9,7,9,20
1463381712215335,28,-7,-53,-8,-1,2,5,27
1463381712215335,63,7,16,16,9,15,2,70
1463381712230346,77,1,-51,11,4,6,24,43
1463381712230346,-41,-17,-37,-13,-5,-7,10,-22
1463381712245357,-6,20,123,5,-1,0,-3,-11
1463381712245357,-27,-9,-123,-32,-14,-18,-15,-47
1463381712253364,40,18,-14,12,6,10,25,74
1463381712253364,-5,-3,13,-16,3,-5,4,-1
1463381712268374,-128,-6,20,11,-5,-22,-76,-121
1463381712268374,127,24,96,-3,2,9,36,96
1463381712275406,-82,-33,-25,-7,-12,-15,-24,-109
1463381712275406,96,7,-70,-15,-11,1,1,22
1463381712283410,14,26,-19,3,3,-6,-42,12
1463381712283410,45,-38,1,0,9,13,7,81
1463381712298393,127,44,27,-8,4,3,-10,-8
1463381712298393,-128,-14,90,24,-10,-27,-6,-114
1463381712320436,111,-1,69,8,6,16,-2,91
1463381712320436,-23,-2,66,-17,-12,-9,-9,-46
1463381712335468,53,5,-8,-4,4,7,-5,39
1463381712335468,88,-52,-76,5,-4,3,-5,-65
1463381712343461,43,-40,77,-14,-13,-35,28,-41
1463381712343461,7,32,-88,24,14,-1,-53,-26
1463381712365544,-8,-16,-50,-20,-1,15,1,3
1463381712365544,127,-24,127,-3,-11,-8,-27,4
1463381712380492,-105,-26,17,22,3,0,-25,22
1463381712380492,50,49,96,-26,-1,9,42,91
1463381712395503,-105,-36,-128,4,6,7,51,-41
1463381712395503,-83,16,127,-14,-21,-19,48,-68
1463381712403575,-20,15,-113,-2,-3,-17,-13,12
1463381712403575,-43,-8,20,35,25,25,43,57
1463381712418517,17,10,-62,10,4,12,9,5
1463381712418517,83,-20,-102,-25,-4,10,45,53
1463381712434532,49,19,64,14,10,6,-22,29
1463381712434532,-84,45,-77,0,-3,-11,-60,-58
1463381712440596,-54,27,124,-11,-5,0,-33,83
1463381712440596,39,-81,-125,-41,-31,-30,-1,-97
1463381712455608,-77,26,88,26,-8,-19,-47,8
1463381712455608,71,37,-63,-48,-3,-9,-16,-71
1463381712463581,-17,-3,-57,8,2,3,18,18
1463381712463581,66,-8,42,9,0,14,16,43
1463381712470618,-50,-56,90,8,-31,-66,-49,-86
1463381712470618,-6,-37,-3,-20,6,-11,-44,15
1463381712485582,127,-22,-102,14,12,17,37,90
1463381712485582,-70,7,70,42,2,10,-41,-5
1463381712493604,70,-30,-6,-29,-12,-5,-3,-63
1463381712493604,-72,16,-45,-13,-7,-3,21,56
1463381712508582,-98,-53,-54,-9,5,-5,43,-86
1463381712508582,70,26,101,-1,-12,-21,-36,-17
1463381712515588,-53,19,-107,-16,-14,4,33,-4
1463381712515588,77,20,33,-8,-2,18,-61,68
1463381712530596,17,26,-29,7,12,9,-15,-30
1463381712530596,78,48,-1,24,5,12,-36,58
1463381712552611,100,-11,-18,-15,1,24,-47,101
1463381712552611,127,-42,84,15,-19,-15,12,56
1463381712560617,-29,-48,-59,-85,-34,-57,-67,-53
1463381712560617,-128,31,64,72,22,-2,59,14
1463381712575629,-35,20,41,50,-5,-28,-92,-37
1463381712575629,-55,-18,-103,-20,3,16,49,57
1463381712582634,127,105,-56,-15,5,49,51,121
1463381712582634,-87,-51,46,-1,19,32,-48,33
1463381712597644,26,-13,35,59,29,43,112,87
1463381712597644,59,12,-128,-45,-22,-19,-49,-51
1463381712612654,-94,-37,89,-16,-22,-52,-99,-111
1463381712612654,88,70,111,-22,-15,-13,52,46
1463381712627758,48,-27,108,-12,-3,19,-46,75
1463381712627758,-64,-48,-4,-31,-9,-10,-28,-66
1463381712635763,75,4,74,51,16,12,-60,76
1463381712635763,-58,-89,62,21,4,24,73,-55
1463381712650717,127,-78,-2,-21,30,34,81,81
1463381712650717,-93,-128,41,-14,-23,-48,-87,-124
1463381712665788,-54,-27,69,67,6,-15,-40,13
1463381712665788,71,4,-43,-37,-11,29,58,78
1463381712672759,27,47,60,-12,-4,-26,-52,-56
1463381712672759,106,-51,49,48,12,26,0,103
1463381712687770,-79,-50,51,-10,-13,-31,67,-109
1463381712687770,-26,94,-27,4,4,-22,-128,45
1463381712695774,75,99,-89,47,33,83,127,127
1463381712695774,-120,46,45,-7,-26,-87,-92,-128
1463381712710821,-69,-57,68,11,-22,-68,-28,-82
1463381712710821,100,-44,39,30,19,46,115,97
1463381712725769,-21,-30,-44,-21,-14,-22,25,-79
1463381712725769,48,55,4,8,30,23,19,64
1463381712740777,-37,-50,-55,36,1,39,111,-5
1463381712740777,46,-54,20,-80,-15,-49,-80,-47
1463381712755804,-28,-77,-54,-22,-11,11,-20,21
1463381712755804,127,56,-36,36,7,-7,-48,-29
1463381712762809,-75,-6,70,-78,-22,1,13,-66
1463381712762809,73,-58,24,33,-2,-32,-49,-72
1463381712785809,9,-56,37,-26,-11,-4,88,-14
1463381712785809,9,36,0,75,3,-2,84,13
1463381712800836,109,-32,51,1,17,19,-103,30
1463381712800836,67,24,13,-58,-29,9,0,69
1463381712815945,18,-14,-16,-54,-19,-36,-64,-70
1463381712815945,33,49,-24,6,-14,-42,-61,-80
1463381712822901,-22,-17,1,56,16,30,74,104
1463381712822901,-67,36,4,-82,12,-15,-98,-111
1463381712830896,86,-8,-40,6,30,-3,-101,-90
1463381712830896,-10,-6,11,101,24,61,23,127
1463381712845970,-42,26,42,-86,-20,-40,-46,-87
1463381712845970,93,10,-18,16,-1,23,70,76
1463381712852975,-99,-22,42,-43,16,19,55,-50
1463381712852975,-107,35,-25,-64,-51,-50,3,-32
1463381712875935,-7,-36,-64,100,28,49,125,73
1463381712875935,-52,-17,4,-36,-35,-72,-105,-124
1463381712882940,-13,41,-7,55,18,22,-94,124
1463381712882940,61,5,6,-2,-21,10,119,-17
1463381712898004,67,-26,8,13,23,6,18,92
1463381712898004,11,15,-8,6,7,-21,-56,-128
1463381712912952,127,38,12,39,18,18,-45,98
1463381712912952,-70,-35,91,-27,46,37,70,-4
1463381712920957,67,-9,-35,43,-18,-50,-12,-26
1463381712920957,44,18,5,19,-14,6,-6,49
1463381712927962,37,10,-63,-18,-9,19,106,2
1463381712927962,-33,37,-1,-49,-9,-6,-31,8
1463381712935968,-83,-25,-27,39,11,34,-29,40
1463381712935968,-78,-9,-9,-23,-24,-23,45,-69
1463381712950980,45,-17,-30,-80,-47,-92,-94,-94
1463381712950980,97,-7,-24,22,23,74,13,127
1463381712965991,-75,-84,36,-16,12,-41,-39,-128
1463381712965991,-33,-55,-52,57,46,23,-15,3
1463381712972994,8,-6,-38,3,-29,19,32,60
1463381712972994,-76,62,-63,-69,12,29,48,-6
1463381712988077,-82,-55,7,69,4,-47,5,-79
1463381712988077,111,50,-49,87,19,-11,8,79
1463381712996088,29,-28,-7,-76,-43,64,106,59
1463381712996088,-38,74,-53,-64,-7,-39,-59,-94
1463381713018028,-83,43,71,-26,-46,-57,-19,-105
1463381713018028,103,-52,-9,-17,5,42,27,97
1463381713033043,-71,2,-35,-74,-20,23,-29,7
1463381713033043,23,-3,-30,17,-26,-58,-32,-62
1463381713041056,-53,-7,-37,65,31,-10,-79,-50
1463381713041056,29,-38,21,25,-12,55,42,82
1463381713063121,32,-103,51,-45,-17,-86,-92,-128
1463381713063121,-53,31,4,58,77,36,89,42
1463381713071094,79,-30,38,75,11,17,20,23
1463381713071094,30,-29,16,49,59,-1,89,52
1463381713078069,109,39,-8,-42,-78,-23,-29,-13
1463381713078069,-20,2,-20,-104,-43,12,94,0
1463381713086075,42,-8,12,-42,-30,-48,-64,-67
1463381713086075,108,25,-117,40,23,46,49,56
1463381713101088,67,8,-5,43,13,2,-28,13
1463381713101088,-19,-26,-14,-23,-15,47,3,108
1463381713116130,67,-4,71,-61,50,44,119,127
1463381713116130,-1,43,6,51,20,-42,-128,-41
1463381713138120,-89,-56,59,40,-22,12,-23,-26
1463381713138120,-62,39,-14,-35,29,-4,-85,-80
1463381713146126,59,-17,-102,28,-1,47,44,94
1463381713146126,-128,-43,56,-80,-27,-47,39,-128
1463381713161150,-40,-17,1,-104,-50,-112,-115,-128
1463381713161150,39,14,-34,127,54,19,76,94
1463381713183209,98,-1,-67,-68,-57,26,55,127
1463381713183209,-85,-65,60,-39,-14,-46,-7,-115
1463381713191183,-77,59,-16,69,63,25,12,57
1463381713191183,103,31,-41,-1,-31,-9,24,31
1463381713198218,-36,17,97,-45,27,0,41,-59
1463381713198218,8,-19,7,83,63,9,-68,-5
1463381713206194,40,5,-74,-108,-78,-34,-14,58
1463381713206194,-121,-6,19,-32,-13,-38,-121,-128
1463381713221203,-30,-29,50,-19,-8,-62,40,-128
1463381713221203,44,6,-22,62,50,11,71,99
1463381713243194,45,12,-56,123,30,40,-29,52
1463381713243194,125,28,-48,-101,-55,63,38,90
1463381713258196,-58,-28,110,-73,-15,-74,-76,-92
1463381713258196,-33,-16,-63,48,45,56,112,78
1463381713265201,6,25,69,-95,-32,29,103,55
1463381713265201,-89,-22,-41,42,-3,-91,-128,-128
1463381713280211,-4,-5,-30,60,24,5,-31,-6
1463381713280211,-4,-2,-34,21,-4,81,23,79
1463381713295223,47,4,-25,-103,-44,55,84,84
1463381713295223,-128,-45,50,-68,-20,-114,-128,-128
1463381713310234,34,8,-83,97,-16,43,3,127
1463381713310234,11,-3,-45,-71,-69,7,-57,82
1463381713318239,-128,45,57,-21,25,-8,31,-84
1463381713318239,-6,13,36,33,35,-4,-44,-22
1463381713340255,-112,-25,-2,42,9,-62,-76,-54
1463381713340255,127,-26,26,44,8,-3,52,89
1463381713355331,49,-8,-31,-68,11,11,-1,56
1463381713355331,4,-1,24,-14,-30,15,-27,1
1463381713363336,27,-25,-23,-14,-32,7,1,-1
1463381713363336,13,6,55,83,52,14,106,9
1463381713378311,-19,21,-54,-28,-20,5,-64,60
1463381713378311,-6,-17,86,-94,-21,-84,-7,-67
1463381713385288,-69,25,69,87,26,-15,51,-1
1463381713385288,74,4,20,3,0,2,64,41
1463381713393322,61,7,47,23,39,6,19,54
1463381713393322,-63,-16,16,-15,-37,4,-69,-89
1463381713408370,-59,-5,-19,-28,-21,-31,62,-95
1463381713408370,-84,-2,-45,-39,-39,-46,-66,-79
1463381713415374,94,2,-35,68,40,51,8,81
1463381713415374,97,12,1,-128,19,42,53,106
1463381713430327,-55,-11,-16,95,41,-31,-62,-111
1463381713430327,-3,-13,-38,80,18,-5,22,37
1463381713438353,60,16,-40,-68,-65,2,77,37
1463381713438353,87,31,-5,-79,-27,-12,-1,23
1463381713453400,-47,-19,20,-21,3,8,-28,23
1463381713453400,3,-3,-15,-6,-14,-13,-5,-16
1463381713468347,27,12,32,-6,-1,13,10,18
1463381713468347,-27,6,-57,52,22,44,-26,123
1463381713475380,87,-17,25,-16,17,-4,-29,-110
1463381713475380,-120,-11,-14,62,-6,-38,-89,-116
1463381713490364,127,5,-32,-35,-39,-1,115,54
1463381713490364,-67,4,107,-20,19,15,43,9
1463381713498432,70,-24,-20,-14,13,-47,-84,-92
1463381713498432,12,6,-100,-35,-59,1,-25,32
1463381713513376,-42,-16,21,79,20,45,81,96
1463381713513376,81,0,-33,-23,15,60,60,112
1463381713528386,9,9,-62,-66,-39,-78,58,64
1463381713528386,-2,13,-22,-58,-22,-10,8,17
1463381713536392,-50,-12,17,-1,-11,-29,-26,-48
1463381713536392,-5,-12,-28,8,-2,-2,-3,-37
1463381713550402,-30,-2,8,9,14,43,36,-58
1463381713550402,-54,0,16,41,22,9,-25,-29
1463381713558410,-9,-16,-39,-16,-21,-9,-13,-13
1463381713558410,43,0,11,10,-11,14,50,46
1463381713580426,37,14,15,1,-12,37,3,43
1463381713580426,65,-7,-14,-19,-6,-32,-14,-4
1463381713595434,66,-3,-3,13,-23,-11,-39,29
1463381713595434,26,14,-50,-2,27,71,6,127
1463381713603440,11,-23,8,-20,-13,-57,-23,-81
1463381713603440,-128,22,41,20,23,19,3,-19
1463381713618450,64,-5,-19,-46,-34,15,76,42
1463381713618450,62,9,-30,-21,-5,-17,27,-6
1463381713633463,-36,1,-44,-19,-7,-23,-41,0
1463381713633463,30,-17,-17,-26,-4,-23,-25,-41
1463381713648471,-36,38,-22,18,-13,-18,1,-24
1463381713648471,-26,0,26,7,-10,-3,2,9
1463381713655476,-61,78,16,-8,4,-5,24,62
1463381713655476,57,-32,-25,-12,-19,-27,-50,-85
1463381713670489,-47,-18,-11,-23,-2,-19,-50,-30
1463381713670489,5,23,-4,17,2,7,38,37
1463381713678493,54,-27,-2,-1,1,21,-27,-11
1463381713678493,73,21,0,26,39,63,115,127
1463381713693505,69,8,-5,-19,0,-18,58,96
1463381713693505,40,2,-29,-11,-16,-34,17,74
1463381713708516,51,6,-39,-11,0,-20,12,-25
1463381713708516,-50,4,38,27,44,43,66,-17
1463381713715520,23,-25,-7,38,21,43,-29,-25
1463381713715520,-55,-6,-18,20,0,-9,-4,-29
1463381713730560,-5,14,-40,-77,-39,16,29,42
1463381713730560,-9,-40,127,28,4,-6,-24,-39
1463381713738567,-64,31,-38,56,10,-5,-10,-1
1463381713738567,-111,-19,-29,-16,2,-13,-27,-63
1463381713760619,-12,-23,9,-17,-13,-10,21,-7
1463381713760619,-118,5,4,14,8,8,36,36
1463381713775567,127,27,23,38,30,28,62,106
1463381713775567,-61,-17,-40,-12,-17,-42,-29,-88
1463381713790574,30,-31,19,-26,-20,-18,-78,-32
1463381713790574,77,31,-2,4,10,82,16,41
1463381713805598,14,-16,-25,-46,-14,-17,2,1
1463381713805598,-29,14,23,26,11,3,-18,-41
1463381713820655,-63,-2,-8,-3,-8,3,-14,-20
1463381713820655,-29,-6,-31,-28,-27,-21,-24,-12
1463381713835664,-27,-11,31,13,-3,4,-1,2
1463381713835664,-18,20,-37,-36,-19,-21,-13,-18
1463381713843641,0,-4,12,-13,-1,9,-5,26
1463381713843641,9,-16,-6,11,5,-13,13,-6
1463381713850617,-84,-17,-21,-13,-12,-8,-60,-90
1463381713850617,13,-14,6,-9,1,9,-14,2
1463381713858638,43,20,7,8,6,25,25,56
1463381713858638,35,7,3,8,1,-47,9,23
1463381713872643,43,26,-18,-14,12,30,28,52
1463381713872643,71,-1,-35,-9,-15,-6,12,-12
1463381713888675,-25,-7,-5,-40,-10,-5,9,-3
1463381713888675,13,11,19,74,44,32,35,42
1463381713896683,-98,-6,16,11,7,-28,-52,-58
1463381713896683,22,2,27,24,2,12,-7,32
1463381713910687,13,-28,-24,-18,-8,7,30,29
1463381713910687,43,-5,-38,-50,-23,-6,-13,15
1463381713918670,-17,8,18,-16,-10,-13,14,0
1463381713918670,-42,-2,2,-2,5,-7,-19,-18
1463381713933675,-127,17,-3,1,-3,-1,62,-71
1463381713933675,-49,-11,6,-8,-12,-14,-50,-32
1463381713948707,38,-6,8,22,17,35,29,47
1463381713948707,-30,-13,4,-7,-7,-45,-21,-52
1463381713955756,49,30,-5,-11,-10,-14,-41,23
1463381713955756,21,-3,-8,-13,-11,-5,9,10
1463381713970708,-33,-15,25,39,26,0,-4,-13
1463381713970708,104,-4,-8,9,4,26,1,14
1463381713978714,-54,-8,-19,-19,-22,-6,-15,-13
1463381713978714,-46,-11,-36,-56,-23,-17,-15,-30
1463381713993727,-52,13,25,-21,-21,-32,-56,-88
1463381713993727,-9,8,-24,-7,-5,-2,-10,1
1463381714007865,15,-8,-34,-31,-25,-4,15,0
1463381714007865,-7,-31,25,-18,-16,-10,-9,-1
1463381714015871,76,14,-19,3,7,22,18,44
1463381714015871,24,-11,21,22,15,-18,-4,23
1463381714030822,-50,-21,-14,-5,-7,-10,-23,7
1463381714030822,-82,-33,5,-8,-11,-9,11,-91
1463381714037827,64,27,-2,-6,-4,-1,-14,-9
1463381714037827,15,-16,10,13,14,36,11,-2
1463381714053839,0,-22,-17,-2,-7,-31,-38,3
1463381714053839,38,-7,-10,-24,-13,-9,-1,44
1463381714060839,-11,24,24,9,18,11,29,29
1463381714060839,10,-5,-2,31,11,-5,-19,-51
1463381714075849,28,23,3,-14,-11,-7,-3,20
1463381714075849,-9,-14,-10,-4,-5,-8,14,2
1463381714090873,-9,-36,4,24,25,18,-4,-8
1463381714090873,9,3,-6,8,10,7,-1,2
1463381714097925,-18,22,6,1,1,-3,-20,-10
1463381714097925,-15,16,-16,-6,-8,2,-14,4
1463381714112889,73,-22,-8,-20,-18,-15,-4,-13
1463381714112889,-33,-36,14,-4,-4,-5,-2,-14
1463381714120939,94,54,-3,1,6,9,32,69
1463381714120939,23,-34,0,13,12,7,17,25
1463381714136045,-6,-14,-12,-2,-2,12,7,3
1463381714136045,-17,14,7,-9,-10,5,-13,28
1463381714150995,31,-12,-5,-10,4,-16,17,39
1463381714150995,-45,-3,3,20,9,4,9,-15
1463381714158062,-14,10,7,14,7,-8,-11,-9
1463381714158062,-19,-2,10,7,6,6,5,5
1463381714173011,-4,-23,-17,-4,-4,18,26,4
1463381714173011,-25,-11,-2,-54,-35,-16,-11,-21
1463381714181081,12,22,34,13,9,-10,1,1
1463381714181081,-7,-5,-18,30,17,-1,0,0
1463381714196096,-13,1,-5,-9,-6,5,-2,3
1463381714196096,-37,0,-12,-13,-1,-7,-1,-18
1463381714211056,11,-8,-7,10,2,-1,-2,5
1463381714211056,17,-3,5,-3,-2,11,7,22
1463381714218061,15,8,-19,-8,-9,-4,-4,1
1463381714218061,-12,-23,5,-6,-7,-17,6,-31
1463381714233071,-1,-9,-11,6,8,21,3,-1
1463381714233071,4,-6,12,7,6,26,13,12
1463381714241072,-24,8,-14,-7,-5,-51,-25,-32
1463381714241072,14,5,4,-1,-8,-32,-26,7
1463381714256070,15,4,-2,8,5,21,12,13
1463381714256070,4,2,4,1,0,4,-1,1
1463381714271120,-20,-8,-10,-8,-6,-7,0,-5
1463381714271120,6,3,-21,-24,-17,-12,-4,1
1463381714278125,-8,7,44,5,9,9,2,-4
1463381714278125,-27,-8,-2,39,22,5,-2,-10
1463381714293136,-8,-8,-7,6,0,3,1,6
1463381714293136,9,11,-1,-8,-4,-8,-1,-1
1463381714301102,10,-3,-25,-31,-19,-7,-1,4
1463381714301102,-10,9,10,-9,-5,1,-2,-6
1463381714316130,-4,15,-13,-2,-1,2,0,-4
1463381714316130,5,-5,5,0,1,2,0,3
1463381714331124,-2,-1,-8,-2,0,10,11,1
1463381714331124,2,-1,14,1,1,-10,-12,-5
1463381714339133,-5,-4,-3,5,-1,-13,-5,2
1463381714339133,2,4,-11,-4,-4,-5,1,1
1463381714353203,-2,0,0,-6,-5,-3,-7,-2
1463381714353203,-5,-6,0,-1,2,5,4,-5
1463381714361176,2,8,-8,4,2,9,6,2
1463381714361176,-1,-3,-11,-10,-6,1,-1,0
1463381714376156,0,5,-11,0,0,5,2,1
1463381714376156,-3,0,-16,0,-1,4,1,0
1463381714390184,-1,-7,13,-6,-6,-6,-2,1
1463381714390184,8,-5,8,-6,-3,-5,-1,0
1463381714398237,-2,4,-15,7,3,5,1,-2
1463381714398237,-4,7,-5,-4,3,6,3,-2
1463381714413182,3,-13,-18,-4,-2,-6,-3,1
1463381714413182,6,6,32,2,-2,-7,0,1
1463381714420186,-9,10,-6,-5,2,3,2,-3
1463381714420186,-1,-5,-2,8,-1,-1,-2,1
1463381714435197,3,0,5,-8,-6,1,1,1
1463381714435197,-4,3,6,1,1,-1,-2,-2
1463381714450219,2,-4,1,0,0,0,0,-1
1463381714450219,2,1,2,1,0,0,-2,0
1463381714458224,2,5,0,3,1,2,-1,2
1463381714458224,-6,-3,-8,-7,-3,-2,-4,-3
1463381714474223,-6,-7,-2,1,-1,0,-2,-4
1463381714474223,2,-1,-2,1,1,0,1,0
1463381714480240,-4,-6,1,1,-2,-2,1,-2
1463381714480240,-2,-1,-9,-3,-1,1,-1,0
1463381714495240,1,-2,-7,-7,-5,-1,0,0
1463381714495240,-2,0,16,-4,-5,-1,-1,-1
1463381714510288,-4,-1,-13,2,0,-2,-2,-3
1463381714510288,-1,14,8,0,-1,-3,-1,-1
1463381714518268,2,-8,-3,-2,-4,-1,-1,1
1463381714518268,-5,-7,-9,2,-2,0,-2,-2
1463381714533304,-3,-3,16,-6,-3,-4,-3,-4
1463381714533304,-2,2,14,15,2,1,0,2
1463381714540300,0,2,-9,-6,-3,-2,-2,-1
1463381714540300,-9,-5,-1,-5,-3,-4,-1,-3
1463381714555310,-1,-1,-12,1,-1,-2,0,-1
1463381714555310,3,1,1,-1,-2,-2,-1,0
1463381714570321,0,7,-3,3,-1,-1,0,0
1463381714570321,1,-2,-3,-3,-3,-2,-3,0
1463381714579306,0,-7,-4,0,0,2,1,0
1463381714579306,-3,2,0,-4,-2,0,-2,-1
1463381714594313,-3,4,-15,2,1,1,-1,-3
1463381714594313,3,-3,15,-2,1,0,0,0
1463381714600328,-2,-6,9,0,-3,-1,0,-1
1463381714600328,-2,2,-11,1,2,1,0,0
1463381714615338,-1,3,25,2,4,-2,-2,-1
1463381714615338,-5,5,-12,8,6,0,0,-3
1463381714630347,-2,9,4,2,-4,-3,-1,1
1463381714630347,5,2,-6,-6,-1,-1,2,0
1463381714645361,-3,-1,23,-12,-11,-5,-5,-3
1463381714645361,-3,-7,-50,-2,-1,0,0,-3
1463381714660368,3,1,16,2,3,-1,0,-1
1463381714660368,-4,8,-13,-2,-3,-4,-3,-2
1463381714668373,1,12,-3,1,0,-1,1,2
1463381714668373,2,4,4,-3,0,-1,-1,0
1463381714683373,-1,1,-32,1,1,0,0,0
1463381714683373,-1,0,47,2,-2,0,-1,0
1463381714728403,-3,-1,23,-12,-11,-5,-5,-3
1463381714728403,-3,-7,-50,-2,-1,0,0,-3
1463381714743427,3,1,16,2,3,-1,0,-1
1463381714743427,-4,8,-13,-2,-3,-4,-3,-2
1463381714750418,1,12,-3,1,0,-1,1,2
1463381714750418,2,4,4,-3,0,-1,-1,0
1463381714773453,2,5,-15,0,-1,1,0,1
1463381714773453,5,14,30,-4,-1,-2,0,0
1463381714780479,-1,1,-32,1,1,0,0,0
1463381714780479,-1,0,47,2,-2,0,-1,0
1463381714788507,0,-12,26,8,2,2,2,2
1463381714788507,-7,-9,-45,-4,-3,-2,-3,-4
1463381714803517,-3,-11,-28,-2,-2,-1,-2,0
1463381714803517,-1,-8,14,1,2,0,0,-1
1463381714818467,-4,-9,-12,-4,-3,-4,-3,-4
1463381714818467,3,8,-13,-3,0,1,-1,2
1463381714833538,5,-4,22,0,6,2,1,1
1463381714833538,-6,-8,-12,2,-4,-5,-4,-3
1463381714840543,0,14,5,3,-1,2,1,0
1463381714840543,-3,-11,-17,-2,2,1,-1,-1
1463381714855543,-3,-12,26,0,1,1,0,-1
1463381714855543,-1,6,-11,3,-4,-1,0,-2
1463381714870565,-2,-5,6,3,3,1,-2,-3
1463381714870565,6,5,4,-5,-2,-1,-1,-3
1463381714878509,-5,-8,-10,-8,-4,-3,-2,-3
1463381714878509,-1,5,-8,2,1,-2,-2,2
1463381714893588,-1,0,8,8,3,1,1,6
1463381714893588,2,4,43,-4,-5,-2,6,65
1463381714900549,-5,-2,-73,-13,-5,-6,-9,-87
1463381714900549,-4,-5,14,-5,-3,-3,-4,-10
1463381714915568,5,0,-36,-1,1,2,5,29
1463381714915568,-3,10,60,-3,-2,-3,0,-7
1463381714930591,-5,7,-12,-6,-8,-6,-4,-3
1463381714930591,2,7,-15,-2,1,0,0,-5
1463381714938635,1,-1,59,1,2,3,5,13
1463381714938635,1,4,-23,5,2,0,-1,-3
1463381714953708,3,5,9,-1,0,0,-4,-4
1463381714953708,2,10,-4,-7,-6,-3,-4,-19
1463381714960755,6,4,-13,0,-1,0,-1,27
1463381714960755,1,3,-2,-1,3,3,12,-39
1463381714975764,2,6,37,7,4,1,6,33
1463381714975764,-3,-8,-59,-7,-4,-2,-12,-35
1463381714991735,-5,11,46,0,-5,-5,-5,-3
1463381714991735,-10,-28,-75,-10,-7,-3,-8,4
1463381715005788,5,6,-25,0,0,2,1,16
1463381715005788,-3,-7,-43,0,0,1,-2,14
1463381715020798,-6,4,53,-7,-8,-5,-4,-13
1463381715020798,-1,7,2,0,3,1,3,-3
1463381715027740,1,-12,13,0,0,-4,1,40
1463381715027740,2,6,27,-5,-5,-5,0,-27
1463381715035762,-4,-12,-13,-1,2,1,0,-5
1463381715035762,-1,6,-48,2,0,-1,-5,-19
1463381715043768,2,-7,0,2,1,1,1,-1
1463381715043768,0,11,44,8,5,2,2,14
1463381715058795,-6,-7,3,-2,-5,-3,-1,11
1463381715058795,-5,-5,-18,-3,-1,0,-5,-6
1463381715072802,-8,-3,-10,-2,-2,-5,-5,-16
1463381715072802,8,0,37,1,2,2,5,15
1463381715080780,-5,-1,-31,-4,-1,-2,7,28
1463381715080780,1,-5,50,5,2,3,-1,-18
1463381715095818,-9,-5,-53,-13,-7,-7,-14,-10
1463381715095818,4,5,14,-2,-3,0,3,2
1463381715102823,-2,-7,38,4,2,-1,-2,-9
1463381715102823,4,6,-50,5,4,3,3,12
1463381715119807,2,2,3,1,-1,2,-2,-19
1463381715119807,-3,0,-14,1,-2,-5,2,27
1463381715133838,2,2,-47,0,4,0,-8,-42
1463381715133838,-1,10,87,0,-3,-2,-4,7
1463381715140835,-2,-4,-39,-4,-1,-2,-1,-28
1463381715140835,-3,-2,-12,1,0,-1,-1,23
1463381715155892,2,5,13,2,1,2,7,8
1463381715155892,0,-3,-12,-5,0,-1,-3,-5
1463381715162897,-8,-2,-26,0,-1,-2,-4,-12
1463381715162897,-4,-2,66,9,-2,-1,-5,-6
1463381715179863,-1,-18,17,-2,-4,0,1,1
1463381715179863,-1,-3,-26,-4,0,-1,0,8
1463381715200866,-2,1,17,-2,-3,-1,2,9
1463381715200866,3,2,-36,2,1,2,1,-6
1463381715207928,-4,-6,6,-1,-3,-3,-6,-7
1463381715207928,0,-3,-2,-4,-4,-2,-2,-6
1463381715222986,3,6,14,7,3,2,-3,5
1463381715222986,-7,-10,53,-7,-6,-4,0,-4
1463381715231043,1,2,-11,0,0,0,-1,-4
1463381715231043,0,5,-4,0,1,2,2,0
1463381715238012,-1,8,-1,-5,1,-3,-1,-1
1463381715238012,-3,-3,-36,-2,0,-1,2,12
1463381715253001,0,-7,1,-1,1,-1,-5,-18
1463381715253001,-3,-4,-15,2,2,1,0,28
1463381715261063,-5,4,8,-6,-6,-5,-6,-21
1463381715261063,-4,-4,13,0,-1,-1,-1,-18
1463381715283023,1,-5,-8,-2,-2,2,2,16
1463381715283023,2,3,-57,-3,0,1,3,8
1463381715291029,-2,-3,36,1,1,-2,-6,-1
1463381715291029,0,1,26,0,0,-2,-1,7
1463381715306037,0,5,-41,-3,0,1,2,5
1463381715306037,-2,1,16,3,0,-2,-3,-14
1463381715321054,-6,-3,34,1,1,-1,7,-5
1463381715321054,7,10,-17,-1,-2,0,-6,-4
1463381715328066,-3,-18,-9,-2,-2,1,1,-2
1463381715328066,0,3,-11,1,1,1,-5,6
1463381715336072,0,-2,-20,-7,-2,0,1,1
1463381715336072,-5,0,23,-2,-4,-4,-2,-7
1463381715343124,-3,6,-21,0,-1,1,-2,3
1463381715343124,0,-1,10,1,1,-2,-4,-3
1463381715358128,3,-2,-1,3,4,7,8,48
1463381715358128,-8,-7,-15,-3,-4,-7,-7,-77
1463381715373093,-1,1,20,-1,-2,-1,3,0
1463381715373093,2,4,5,2,1,2,-1,3
1463381715381145,-8,-10,-19,-6,-4,-2,0,-8
1463381715381145,3,-4,14,2,0,1,1,27
1463381715396154,0,-2,28,0,2,2,4,-1
1463381715396154,2,3,-9,-7,-3,-2,-2,-10
1463381715403161,3,5,25,4,1,-2,-1,0
1463381715403161,-9,-1,-39,-7,-5,-8,-19,-1
1463381715418110,18,0,43,5,4,9,19,12
1463381715418110,5,4,2,-3,-4,0,-1,11
1463381715433183,-24,5,-14,-4,-5,-9,-20,-30
1463381715433183,-5,-12,-49,-11,-6,-6,22,-10
1463381715448196,-2,-4,45,1,0,-1,-16,-5
1463381715448196,16,-16,0,10,9,9,15,15
1463381715463206,7,35,10,-1,-3,-4,-4,13
1463381715463206,-3,12,36,1,1,2,6,-2
1463381715471188,-7,-2,-27,-3,-3,-6,-9,-15
1463381715471188,1,-9,-40,7,3,5,9,15
1463381715486189,0,-1,-12,4,1,1,16,-4
1463381715486189,10,7,-14,-6,-7,-3,-11,4
1463381715493192,-25,0,-41,12,5,1,10,2
1463381715493192,16,11,64,3,5,5,12,14
1463381715501175,2,-3,-117,1,-1,-5,-15,-19
1463381715501175,-11,-10,89,-4,-5,-9,-15,-6
1463381715516209,13,-4,14,4,0,6,-15,14
1463381715516209,-1,-9,-98,-9,-3,4,8,1
1463381715525188,-30,8,-10,7,1,0,-19,-14
1463381715525188,6,4,52,-3,-2,-8,46,-12
1463381715538195,5,15,21,11,4,4,-15,13
1463381715538195,8,-10,-20,-1,1,3,1,13
1463381715553206,22,0,64,5,5,7,0,21
1463381715553206,12,5,11,8,1,-3,-14,0
1463381715560211,32,-1,-7,-8,-3,3,5,36
1463381715560211,-43,-2,10,-2,1,1,11,-25
1463381715575221,-10,-3,17,4,-2,-8,-18,-39
1463381715575221,-39,-3,16,1,-1,-3,-17,-33
1463381715583228,5,-11,-4,-11,-12,-4,-9,17
1463381715583228,41,9,9,21,15,12,18,85
1463381715598241,14,-1,50,-6,0,-2,4,-11
1463381715598241,42,-16,24,7,1,5,-4,17
1463381715613249,22,-4,-90,-16,-12,4,33,62
1463381715613249,123,30,2,23,18,22,46,94
1463381715620254,101,-1,-54,-10,-1,-10,23,1
1463381715620254,-99,-10,102,10,-9,-24,-74,-119
1463381715643270,68,14,-64,-2,-7,-4,-12,21
1463381715643270,16,11,4,13,7,13,22,14
1463381715650336,-19,-38,-45,-13,-6,-1,5,-27
1463381715650336,127,33,-37,9,17,29,58,124
1463381715665346,60,2,10,8,5,7,2,47
1463381715665346,58,4,20,-11,-5,-3,2,4
1463381715681307,-40,2,-21,-12,3,-10,-11,-61
1463381715681307,52,-30,22,38,7,0,7,16
1463381715696341,-79,31,-57,0,4,11,14,21
1463381715696341,59,12,82,20,4,-2,-21,16
1463381715703342,-42,9,-84,6,-1,7,2,-43
1463381715703342,99,1,-105,-34,-2,-6,-32,-5
1463381715718325,106,12,22,8,6,12,22,93
1463381715718325,-128,-46,0,-4,-17,-23,-49,-128
1463381715733335,127,10,11,10,-6,-13,14,-27
1463381715733335,13,-6,-56,-13,8,11,-21,49
1463381715740338,80,0,34,15,9,17,54,94
1463381715740338,-97,-8,-57,-12,-9,-19,-15,-92
1463381715755364,45,-13,9,1,-1,-7,-80,17
1463381715755364,25,-27,-47,-3,-13,3,66,53
1463381715763369,23,3,-79,-27,-4,-20,-102,-94
1463381715763369,60,32,36,29,19,28,24,127
1463381715778382,36,-16,-17,-8,-3,0,20,-2
1463381715778382,14,60,103,10,1,-3,-2,3
1463381715793415,-43,-26,-47,4,3,12,5,58
1463381715793415,51,-3,-110,9,10,6,32,-14
1463381715800380,28,-16,127,-6,-11,4,9,81
1463381715800380,65,-45,-112,-7,-4,2,2,-21
1463381715815430,-3,29,-32,-5,-20,-35,-19,2
1463381715815430,-128,12,-105,-9,18,14,41,-69
1463381715823397,-65,-8,105,-5,-21,-35,-62,-62
1463381715823397,90,32,-7,-3,8,20,4,107
1463381715838407,-114,-60,-31,-1,-15,-53,-69,-126
1463381715838407,-50,16,-48,-9,-4,-6,-1,1
1463381715853417,34,-32,100,-2,-10,-17,-2,-53
1463381715853417,-128,8,-39,5,-1,-7,-65,-49
1463381715860427,92,-13,-21,5,8,53,48,86
1463381715860427,-23,-56,53,20,19,40,99,87
1463381715875433,-28,-33,-65,-12,10,-13,-13,-44
1463381715875433,82,12,127,-7,11,-4,-45,80
1463381715883438,33,14,-30,28,13,8,75,-23
1463381715883438,-83,-6,-13,-61,-48,-40,-59,-108
1463381715898449,90,7,-95,-20,-4,-3,-38,30
1463381715898449,65,56,-75,19,8,-2,-30,5
1463381715920465,57,6,68,21,30,36,71,124
1463381715920465,37,36,-128,-20,-19,-34,-36,-110
1463381715928470,-88,-48,94,-29,-30,-40,-55,-56
1463381715928470,-46,36,-42,-13,-4,13,24,2
1463381715943481,36,15,-90,-15,-17,-2,17,40
1463381715943481,126,-7,80,2,-13,-52,-24,-1
1463381715950486,-128,-10,1,37,14,6,-43,-102
1463381715950486,19,3,-11,-2,12,8,6,16
1463381715958510,58,14,34,10,24,29,36,67
1463381715958510,43,5,-88,-30,-4,39,74,104
1463381715965537,-80,3,96,30,3,-16,7,-58
1463381715965537,61,8,-59,12,8,-13,-20,0
1463381715980549,-99,12,42,-13,2,4,-40,-31
1463381715980549,24,-23,-92,53,22,43,81,79
1463381715995522,24,-1,67,-64,-13,-45,-99,-71
1463381715995522,-128,-12,127,32,-3,17,-25,8
1463381716003544,30,11,-105,-12,19,44,90,98
1463381716003544,54,-44,-18,-2,-31,-59,-128,-127
1463381716018550,87,-5,-2,-5,-1,3,-16,15
1463381716018550,-98,24,34,30,18,20,0,54
1463381716025579,127,84,-29,-15,15,35,121,99
1463381716025579,-114,-5,6,1,8,-2,-39,-33
1463381716040613,101,36,-126,121,28,35,22,127
1463381716040613,5,56,-34,-113,-32,-39,27,-51
1463381716055622,39,59,-47,-16,-31,-56,-113,-112
1463381716055622,-27,-25,-88,27,4,39,102,116
1463381716063569,91,-76,84,-31,-19,-19,2,16
1463381716063569,98,-49,127,-7,2,15,33,75
1463381716078611,-22,-57,90,20,47,60,78,125
1463381716078611,-92,-128,99,-66,-67,-87,-97,-128
1463381716085616,-67,-55,23,-15,-3,-4,29,10
1463381716085616,-16,4,-85,34,7,-9,22,-66
1463381716100653,5,45,-10,-38,-19,-22,-9,-8
1463381716100653,51,34,3,-1,-4,11,-12,88
1463381716115604,-128,-11,-98,-7,3,-43,-12,-128
1463381716115604,39,-70,42,21,5,-1,-35,18
1463381716123609,21,10,53,6,-21,-3,69,20
1463381716123609,-24,-14,-18,-40,-9,-20,-88,-27
1463381716145627,-16,60,-8,8,6,21,-2,53
1463381716145627,-5,-43,72,36,23,28,82,57
1463381716153661,-108,-27,63,-31,3,-7,6,-8
1463381716153661,-91,29,-50,62,-9,-13,82,-81
1463381716168642,88,23,-105,-5,1,-1,-110,38
1463381716168642,-25,78,-66,-41,11,63,121,60
1463381716183653,-104,-74,80,20,-47,-99,-107,-127
1463381716183653,100,26,49,-11,16,38,42,127
1463381716190671,80,60,-108,29,43,87,69,79
1463381716190671,8,13,-37,-31,-31,-83,-128,-90
1463381716198677,-65,-85,-106,103,24,31,49,82
1463381716198677,-74,-73,54,-29,-5,-31,-83,-70
1463381716205666,9,-2,-70,-11,-16,-29,-55,-22
1463381716205666,127,96,-26,-31,2,46,46,127
1463381716220678,105,53,0,51,11,10,29,46
1463381716220678,96,-4,-29,29,-14,-24,-24,-62
1463381716235748,-26,-37,88,-64,30,66,20,127
1463381716235748,-100,-41,14,-36,-36,-35,30,-62
1463381716243720,49,66,-60,20,36,18,11,21
1463381716243720,-106,-36,102,-38,-24,8,37,-43
1463381716258710,17,-22,44,-7,-7,-23,-86,-18
1463381716258710,40,-42,20,-13,-12,10,51,34
1463381716265733,2,-23,0,-8,-30,-40,-61,13
1463381716265733,10,89,-8,-35,34,69,112,50
1463381716280735,-76,-23,0,-36,-8,-29,-75,-128
1463381716280735,40,10,-48,50,13,-6,-82,65
1463381716295745,117,23,-25,-26,9,31,69,34
1463381716295745,42,10,13,12,3,-19,-82,4
1463381716302754,65,-36,-75,70,41,44,87,71
1463381716302754,-71,-28,30,-1,-2,-55,-81,-83
1463381716317758,-59,10,11,-26,-11,24,63,28
1463381716317758,127,46,-25,-12,9,16,-80,93
1463381716325793,-80,-64,24,-57,8,50,92,42
1463381716325793,8,-32,-20,-2,-26,-114,-128,-83
1463381716340788,42,4,-15,0,-34,-74,-112,-127
1463381716340788,124,57,-55,20,12,59,35,127
1463381716355774,-56,-46,24,-14,-16,-11,94,-103
1463381716355774,55,-25,-13,21,-10,-3,34,71
1463381716362780,-87,18,44,-77,-41,-22,-35,15
1463381716362780,59,-40,9,47,25,7,15,6
1463381716377806,127,5,-14,97,88,59,-15,51
1463381716377806,-78,19,-16,45,39,30,43,47
1463381716385857,17,-104,-16,13,-55,-16,80,-3
1463381716385857,-50,-16,-26,-100,-30,-52,-55,-54
1463381716400825,-71,5,-5,-38,3,-68,-99,-76
1463381716400825,-44,38,-13,3,-2,31,13,82
1463381716415833,63,5,1,-72,-26,25,72,77
1463381716415833,-96,-3,-18,-26,-43,-86,-89,-112
1463381716422840,-23,34,-23,48,9,2,28,18
1463381716422840,71,10,-22,-22,-11,73,96,67
1463381716445901,-61,46,-73,-120,-11,-12,-45,-98
1463381716445901,-79,-36,2,127,62,-24,-2,5
1463381716452905,118,18,76,85,48,61,-2,48
1463381716452905,-88,-87,117,-5,5,-2,77,29
1463381716467861,33,-4,-52,27,17,-12,-24,6
1463381716467861,24,29,-25,42,34,17,40,-17
1463381716482892,107,52,-54,36,23,2,-71,29
1463381716482892,-20,-2,-30,-1,-2,28,42,15
1463381716498880,-23,3,-71,-18,-27,-47,32,-59
1463381716498880,103,47,-18,38,35,42,-29,112
1463381716505897,88,-31,48,-126,-87,-38,-32,-50
1463381716505897,-7,19,-52,28,22,3,-49,9
1463381716520903,108,3,17,-85,6,75,124,127
1463381716520903,-13,-29,17,30,5,-68,-128,-103
1463381716535901,-7,-9,55,43,33,-11,-39,-41
1463381716535901,11,23,-13,78,60,35,22,-68
1463381716542906,11,7,-42,-29,-32,-3,15,37
1463381716542906,61,-26,-3,-39,-49,36,124,4
1463381716557916,7,-4,59,6,8,-22,-12,43
1463381716557916,81,13,15,50,39,23,77,69
1463381716565922,-8,-17,-15,41,0,-14,35,24
1463381716565922,127,7,-24,-35,-8,13,40,67
1463381716580933,19,21,-47,43,46,-15,-44,-76
1463381716580933,-18,-1,-55,81,8,-32,-50,-28
1463381716602947,-88,-21,13,30,12,19,33,8
1463381716602947,28,35,-13,-74,-31,21,26,45
1463381716610957,-48,-8,58,-85,28,91,127,-1
1463381716610957,-128,-12,84,83,74,-62,-128,-27
1463381716625965,118,1,-19,-8,-18,10,27,76
1463381716625965,104,15,-128,53,5,95,107,98
1463381716632972,-95,-29,52,22,-37,-98,-107,-70
1463381716632972,27,-2,-39,59,28,38,89,47
1463381716648045,59,11,-45,62,-5,-9,11,15
1463381716648045,-84,-5,-29,-4,-48,-5,-50,-20
1463381716662991,82,-11,-27,51,46,73,82,50
1463381716662991,-39,-23,81,-47,-86,-101,-99,-73
1463381716678013,106,14,-34,-11,21,100,127,127
1463381716678013,84,6,40,-92,-50,-28,14,28
1463381716686045,-95,-2,5,31,43,-22,-123,-57
1463381716686045,99,-10,-54,44,33,56,41,45
1463381716701031,43,3,23,52,-9,-38,-70,10
1463381716701031,61,-10,-34,-110,-31,15,-6,102
1463381716716040,10,-1,-81,47,54,-37,-62,-125
1463381716716040,66,20,-18,127,41,9,28,32
1463381716723072,41,0,-40,-102,-61,12,53,125
1463381716723072,-96,-17,20,-68,-61,-65,56,-128
1463381716746067,40,8,16,127,81,-22,-24,-15
1463381716746067,89,4,14,-28,1,45,48,114
1463381716753073,52,-2,1,-69,-60,-66,-38,-102
1463381716753073,-6,-5,-23,12,10,11,-37,111
1463381716768077,26,-7,-11,127,44,58,31,61
1463381716768077,127,4,-53,-55,-8,26,31,95
1463381716783075,-19,-2,-32,-39,-42,-10,-1,-63
1463381716783075,-111,-1,3,28,28,2,-41,4
1463381716791120,28,1,-53,-82,-32,8,68,70
1463381716791120,28,-4,-37,-69,-11,-33,-13,-46
1463381716798125,22,1,26,84,100,45,21,28
1463381716798125,43,0,34,51,-63,-102,-117,-128
1463381716806103,-15,5,-65,-45,6,4,25,23
1463381716806103,23,-1,-27,47,31,30,9,52
1463381716821114,-28,0,-14,17,4,6,-78,5
1463381716821114,-94,1,-24,96,86,36,86,-46
1463381716858169,-3,-1,61,105,20,-28,-29,-70
1463381716858169,66,4,5,-39,-17,7,85,126
1463381716866148,-7,-5,12,-33,-31,-58,-104,-91
1463381716866148,108,-3,-21,4,-4,43,69,62
1463381716881166,-3,-3,3,-38,-7,3,32,41
1463381716881166,-11,0,-22,5,-5,11,55,-18
1463381716888191,55,-1,-13,-13,-9,-33,-73,-17
1463381716888191,-70,3,-16,9,14,-5,-30,-7
1463381716911186,127,-1,25,9,4,55,54,-3
1463381716911186,-75,-4,-2,-25,-13,-54,-61,53
1463381716918175,13,11,-5,55,59,88,127,59
1463381716918175,127,6,-40,116,61,36,21,22
1463381716926200,-30,1,46,-28,-9,2,-52,7
1463381716926200,41,8,13,-28,-35,-13,-15,3
1463381716933248,63,3,-18,-32,8,-15,-18,-56
1463381716933248,-70,-2,-39,53,6,17,-34,-12
1463381716948259,-89,-24,-4,-42,-34,-37,-16,-101
1463381716948259,-68,7,-24,-35,-12,-8,12,-17
1463381716963207,-127,2,67,-51,-32,-36,-25,-23
1463381716963207,113,27,-12,48,17,75,80,79
1463381716978218,85,-16,12,-20,-12,-31,74,122
1463381716978218,127,3,-24,-56,-27,24,26,127
1463381716985218,-98,23,16,12,40,-64,-70,-114
1463381716985218,-54,6,1,60,41,-26,-106,-86
1463381717001235,-20,-11,-24,-5,16,45,34,25
1463381717001235,27,19,25,-29,21,17,-4,-2
1463381717008254,14,13,-42,-70,-70,-10,26,14
1463381717008254,66,44,-17,-38,-20,-15,-9,34
1463381717023250,25,40,-12,-7,0,22,4,112
1463381717023250,46,19,-36,-39,-41,6,32,77
1463381717038275,-23,-14,6,-52,-42,-32,-36,-5
1463381717038275,89,3,-7,20,27,26,78,26
1463381717045280,88,21,-21,54,32,53,17,94
1463381717045280,57,-3,7,-56,-30,-14,-11,-61
1463381717060284,-102,-23,1,-22,-38,-114,-86,-78
1463381717060284,55,4,-4,14,34,77,20,29
1463381717075296,44,-3,-11,14,-11,-70,-16,-19
1463381717075296,-4,4,-20,-11,9,40,38,52
1463381717090294,75,-11,-16,37,34,60,61,23
1463381717090294,-35,-32,-8,-30,-27,-29,5,-61
1463381717105332,33,7,-15,-13,-8,-3,-25,-18
1463381717105332,43,8,-12,-4,-10,6,41,40
1463381717113313,-66,49,7,-9,25,43,73,77
1463381717113313,123,1,0,20,19,1,-36,-26
1463381717128348,87,7,4,6,3,24,11,33
1463381717128348,105,6,-15,-5,-9,-30,-11,127
1463381717143331,41,1,8,3,-5,19,23,1
1463381717143331,-57,1,5,-11,0,10,-17,24
1463381717158357,127,-9,-70,-24,-25,-23,27,46
1463381717158357,-104,-27,-2,-18,11,-29,-12,-13
1463381717165346,-102,-17,-21,60,20,22,-59,-31
1463381717165346,-100,1,-11,1,-3,3,52,-60
1463381717180418,-24,-6,-37,-1,6,20,-1,31
1463381717180418,12,-6,-12,-18,-24,-6,13,-18
1463381717188425,42,14,34,-42,-20,-19,-30,14
1463381717188425,121,18,10,54,27,29,27,127
1463381717203435,100,23,13,19,9,12,37,90
1463381717203435,61,-5,8,-6,-4,12,42,65
1463381717218392,-42,-2,12,-19,-15,-21,-63,-58
1463381717218392,114,27,-47,30,27,40,102,127
1463381717225417,-33,-36,35,-20,-22,-32,-49,-100
1463381717225417,-127,-15,-8,-12,-8,-22,-12,-98
1463381717240414,10,8,-39,0,15,31,-17,47
1463381717240414,105,13,-49,-27,-20,-13,5,15
1463381717248465,2,-2,109,9,-3,-18,33,18
1463381717248465,27,-5,15,34,24,20,7,6
1463381717263435,-25,-5,-17,-6,-2,-6,17,1
1463381717263435,38,-8,-8,-30,-19,-14,-49,-41
1463381717278487,-22,9,-7,-4,-1,10,8,42
1463381717278487,-101,22,11,5,-6,-6,-25,-25
1463381717285464,-29,-19,-30,-27,-14,5,3,-85
1463381717285464,-90,-22,21,-7,1,-26,-22,-40
1463381717300503,127,22,-43,4,0,-25,3,56
1463381717300503,87,-20,-8,3,5,-1,-25,35
1463381717308449,0,-30,-4,12,7,9,6,10
1463381717308449,1,-8,-2,-14,-3,-6,-22,0
1463381717323519,26,-5,2,-13,-1,-33,-69,-90
1463381717323519,-59,-3,17,12,-1,20,13,18
1463381717338474,34,21,-15,-28,-15,-7,-19,9
1463381717338474,74,0,26,17,18,2,18,11
1463381717345502,-46,-9,-29,46,16,12,8,28
1463381717345502,29,-24,-5,-19,-9,-11,-7,-2
1463381717360489,-5,30,2,-6,-10,-4,0,-6
1463381717360489,-86,4,-15,-27,-13,-10,-18,-47
1463381717368574,-6,-17,-12,-16,-9,-6,56,-3
1463381717368574,41,-23,8,0,-1,7,-3,-6
1463381717383529,-128,-48,-10,-4,-11,-16,31,-63
1463381717383529,20,-6,3,-15,-14,-31,-66,-76
1463381717398573,36,24,-16,-2,5,20,14,13
1463381717398573,94,2,-7,12,9,23,25,16
1463381717405650,-54,4,-39,-22,-12,6,19,70
1463381717405650,99,-14,78,-2,12,4,-3,69
1463381717420642,16,17,-22,37,17,2,7,-50
1463381717420642,-94,-1,32,-12,-20,-42,-47,-74
1463381717429632,112,-10,-41,-5,-2,9,-12,64
1463381717429632,-7,-23,23,-38,-25,-3,10,-11
1463381717443643,-14,-17,28,-17,-9,-11,-25,-39
1463381717443643,-22,-23,-31,-12,-10,-1,7,12
1463381717458653,-49,14,7,-29,-19,-15,-7,10
1463381717458653,4,-6,-37,-8,0,0,9,-16
1463381717465659,44,-7,7,9,-1,8,14,-11
1463381717465659,-103,-35,-12,11,7,11,-18,-26
1463381717480683,-33,25,10,-7,-8,-36,28,-12
1463381717480683,-45,8,-9,-7,-10,-14,38,-24
1463381717489734,-33,16,41,26,16,12,50,102
1463381717489734,127,-48,-34,-8,-2,3,19,-22
1463381717503734,93,-13,-2,-12,3,2,2,38
1463381717503734,67,-11,-4,0,-7,7,28,54
1463381717517693,1,3,-29,14,2,-2,2,-17
1463381717517693,-20,3,-33,19,13,1,-3,-16
1463381717532716,7,-14,-6,1,3,0,-32,-15
1463381717532716,-65,-2,8,-3,-7,-6,-11,-12
1463381717548731,26,13,10,-29,-20,-13,-17,-15
1463381717548731,7,12,-8,-8,0,13,5,49
1463381717555720,37,-20,-9,4,-1,-8,-34,-91
1463381717555720,-101,-4,-2,-2,1,3,-10,3
1463381717570730,84,-6,8,4,0,-8,-17,16
1463381717570730,-22,-12,5,3,7,8,5,9
1463381717585742,-35,-10,-2,-8,-9,-9,-5,-15
1463381717585742,13,-4,-2,18,14,1,-10,38
1463381717600751,-53,0,3,-1,1,6,3,-34
1463381717600751,-109,5,-21,-8,-13,-19,-28,-67
1463381717607756,4,-4,-1,3,0,0,-13,0
1463381717607756,19,-1,-4,-3,-5,0,15,15
1463381717622766,10,-3,5,5,1,5,-18,10
1463381717622766,-37,-5,-7,-7,-9,-15,0,-49
1463381717637777,-31,9,8,-9,-11,-3,-18,-20
1463381717637777,-21,-2,-5,-6,1,9,-3,2
1463381717645783,27,-3,-3,9,5,-17,-13,48
1463381717645783,114,4,8,2,5,7,11,44
1463381717660795,-122,-13,12,-7,-9,-13,-41,-103
1463381717660795,116,4,-13,4,4,5,23,25
1463381717667799,33,-5,-6,-2,0,6,-17,4
1463381717667799,51,2,-12,-7,-5,-2,-15,37
1463381717682811,-116,-11,4,0,-8,-11,-10,-45
1463381717682811,-33,-6,-23,-18,-1,0,-5,-11
1463381717697821,27,13,17,1,-7,13,9,50
1463381717697821,-37,-38,-67,-16,1,-4,-16,-5
1463381717705827,41,7,-13,13,4,2,13,-4
1463381717705827,-77,-2,21,2,-1,-6,-2,-16
1463381717720837,48,11,1,-4,-5,0,-6,16
1463381717720837,-1,9,25,-5,-5,0,3,25
1463381717735847,14,-6,4,4,4,6,21,-3
1463381717735847,26,-18,-2,-8,-14,-28,-63,-79
1463381717750874,16,-4,-10,-6,1,-16,-12,21
1463381717750874,27,0,17,12,5,5,36,11
1463381717765869,0,5,-12,-10,-6,-13,-22,-7
1463381717765869,-10,3,20,4,-1,2,4,1
1463381717772877,-46,-6,3,3,1,11,10,-11
1463381717772877,-25,-1,11,7,4,0,8,-12
1463381717780883,8,3,-11,-5,-3,-3,-17,4
1463381717780883,-28,-5,3,-18,-11,-4,8,-2
1463381717787916,4,-4,1,17,11,-2,0,-8
1463381717787916,-22,3,0,6,6,5,4,4
1463381717802902,-107,-10,-8,-19,-16,-19,-23,-76
1463381717802902,19,-2,4,0,-3,-5,-7,-1
1463381717817910,8,-3,-7,-2,1,0,-6,3
1463381717817910,25,0,-7,2,3,-3,-1,2
1463381717825916,44,4,1,3,2,5,-2,24
1463381717825916,-30,-3,-4,2,0,4,18,2
1463381717840923,3,-3,2,-7,-3,-4,-2,-2
1463381717840923,-9,-1,6,7,1,-6,-2,-6
1463381717847928,-7,-1,-5,-4,1,5,-3,7
1463381717847928,-8,3,9,3,0,-1,2,-3
1463381717862937,14,-10,-2,-13,-2,-2,1,5
1463381717862937,-26,-11,8,7,-1,-6,-4,-10
1463381717870942,-1,-1,-21,0,1,5,6,0
1463381717870942,-1,3,8,5,2,-1,-2,4
1463381717885957,9,-2,-9,11,8,3,3,3
1463381717885957,8,4,9,5,1,1,3,5
1463381717907972,-3,1,-3,-6,-3,1,-2,2
1463381717907972,-7,2,-16,-18,-12,-6,-1,-14
1463381717915977,-7,2,1,-7,-3,-1,1,4
1463381717915977,36,-3,-6,-3,0,0,0,14
1463381717930986,-42,0,7,9,2,2,1,-15
1463381717930986,7,-1,-19,-6,-3,0,4,-2
1463381717938054,0,1,3,3,0,-2,-6,3
1463381717938054,-5,1,0,-2,2,2,3,0
1463381717953063,3,2,3,0,-2,1,2,2
1463381717953063,-10,5,7,-4,-4,-3,0,1
1463381717961070,6,-2,2,2,1,-2,-2,-2
1463381717961070,-17,-1,-5,-3,1,1,0,-4
1463381717968012,4,-2,-2,-3,-4,-2,1,1
1463381717968012,-16,-1,-2,-5,-2,-2,-5,-5
1463381717983086,-1,-1,2,1,-2,0,-3,-2
1463381717983086,-2,0,-2,1,-4,-2,-3,-3
1463381717991090,5,-4,-1,-4,-2,1,0,0
1463381717991090,-7,0,21,-3,-2,-2,-2,-5
1463381718006040,0,-3,2,2,0,0,-1,-4
1463381718006040,-9,3,1,-5,2,-1,0,-3
1463381718021048,4,3,4,-5,-4,-2,1,2
1463381718021048,-1,-1,-10,-7,-3,-3,-3,-2
1463381718028054,-1,1,6,3,3,2,2,-2
1463381718028054,-2,5,5,0,-2,-1,0,-1
1463381718043126,2,-4,1,-3,-2,-2,-2,1
1463381718043126,-3,0,-11,1,-1,2,1,0
1463381718052071,-1,-4,-3,-5,-1,-1,1,-1
1463381718052071,-1,7,-4,-4,-3,-3,-1,0
1463381718066081,-1,-3,2,1,-2,-1,0,2
1463381718066081,-3,0,2,-1,-1,1,0,-5
1463381718081164,2,4,2,-6,-5,-3,0,0
1463381718081164,-1,-2,9,7,3,-1,-2,-2
1463381718088104,1,-2,-9,-2,2,1,0,1
1463381718088104,0,3,9,-7,-2,-2,-1,-1
1463381718103303,1,-1,-11,7,0,-1,0,0
1463381718103303,0,-7,-3,-2,-3,0,-1,0
1463381718112262,-1,0,-5,3,-1,1,1,-2
1463381718112262,-1,1,2,-13,-3,-2,-1,-3
1463381718126250,0,3,3,4,-1,-1,-1,-2
1463381718126250,-3,-2,0,4,-3,-1,-2,-4
1463381718141284,0,-3,-3,-1,-3,-1,-6,0
1463381718141284,1,0,-5,-6,1,-2,2,0
1463381718148291,-1,-2,1,-3,-1,1,0,2
1463381718148291,-2,1,8,4,0,-2,1,0
1463381718163277,2,1,-7,-2,0,-1,-4,-1
1463381718163277,-3,1,-2,0,-1,-1,-1,-1
1463381718171282,-2,-3,-1,-4,0,-2,-3,-3
1463381718171282,0,1,1,1,-1,0,-2,0
1463381718186317,-3,-2,14,7,3,-2,-1,-5
1463381718186317,0,1,-5,0,0,0,-1,0
1463381718208321,-2,0,-4,-5,-3,0,2,-2
1463381718208321,0,-2,-8,-1,1,1,0,-1
1463381718215326,1,-2,-6,-2,-3,-2,0,-1
1463381718215326,3,3,9,-2,-2,-1,-2,-1
1463381718230362,-3,-7,19,8,3,1,2,-2
1463381718230362,0,4,-22,-1,0,0,-1,1
1463381718238368,-2,-5,-5,-3,0,0,-3,-2
1463381718238368,1,3,3,1,-1,0,-1,2
1463381718260346,-1,-5,-8,-4,-2,-3,-2,-1
1463381718260346,-2,-3,-1,3,1,-1,0,-1
1463381718275357,0,2,-7,-2,-3,-1,-3,0
1463381718275357,1,2,4,1,0,-2,-2,-3
1463381718290378,0,-1,-6,-4,-2,-2,-1,1
1463381718290378,1,-4,-3,-1,-1,0,-1,0
1463381718305391,-3,-2,-3,1,1,1,-1,-2
1463381718305391,-2,-1,4,-2,-3,0,-2,-2
1463381718320387,0,2,10,3,-3,-2,0,-1
1463381718320387,-1,3,7,13,4,-1,-1,-1
1463381718328455,-1,-1,-5,-2,0,-1,0,0
1463381718328455,-1,-3,-1,1,1,0,-1,-2
1463381718343454,0,-2,0,-3,-4,-2,-1,0
1463381718343454,-2,-2,-1,0,1,-1,-2,-1
1463381718358477,0,-3,-3,0,-1,0,-1,-2
1463381718358477,-3,1,5,2,-3,-1,-2,-1
1463381718380562,-2,1,-7,-3,-1,1,-1,-4
1463381718380562,0,1,1,-1,-2,0,0,0
1463381718388647,0,-3,2,-4,-4,-3,-1,-1
1463381718388647,-4,-2,1,0,-2,-2,-1,-1
1463381718403656,-2,-2,-4,2,-1,0,-3,-1
1463381718403656,0,2,0,-6,1,-2,-1,-2
1463381718410593,1,-3,-1,-3,-3,-2,-2,-1
1463381718410593,-3,-4,-1,-1,-1,1,1,-1
1463381718433683,-7,-9,-5,-5,-4,-2,-4,-3
1463381718433683,-1,3,10,-2,0,-1,-1,-3
1463381718440647,1,0,-10,2,-1,-1,0,1
1463381718440647,0,-3,-6,2,0,0,0,0
1463381718455624,1,2,-5,-3,0,0,2,2
1463381718455624,0,-2,8,-3,-2,-2,-2,-2
1463381718463630,-2,3,2,2,0,1,-1,-2
1463381718463630,-1,-2,-6,-1,-1,-1,-1,-1
1463381718478704,0,0,-2,0,1,-1,-1,-1
1463381718478704,0,1,0,-6,-5,-2,-2,0
1463381718493720,0,-2,-6,1,0,-2,-2,-2
1463381718493720,-1,0,-1,-3,1,-1,-1,0
1463381718500657,-1,-5,5,-2,-1,-1,-2,-2
1463381718500657,0,-1,-3,-2,-2,-2,-1,-1
1463381718515670,-1,-2,1,3,0,1,-1,0
1463381718515670,2,3,-2,-2,-1,-1,0,1
1463381718523675,0,-5,-2,-3,-2,-3,-2,-1
1463381718523675,-2,-2,-1,0,0,0,-1,0
1463381718538686,-2,1,-1,2,0,-3,-2,-3
1463381718538686,-1,1,-1,-3,-2,1,-1,-2
1463381718553713,-3,0,-1,3,0,-1,0,-1
1463381718553713,2,-1,2,-4,-3,-2,-2,0
1463381718561699,0,-2,-16,-15,-4,-2,1,0
1463381718561699,-3,-4,15,2,-1,-4,-3,-4
1463381718575721,-3,-2,-3,14,6,4,1,-2
1463381718575721,2,3,-2,-3,0,-1,-1,1
1463381718582726,0,-4,5,1,-2,-1,-1,-1
1463381718582726,-2,-2,-9,-10,-3,-2,-1,-2
1463381718597737,-3,-4,-3,-8,-3,-2,0,-2
1463381718597737,0,3,5,1,-2,-1,0,-1
1463381718613748,0,-4,1,3,-3,-1,-1,-1
1463381718613748,-1,2,0,-2,-1,0,1,0
1463381718620752,0,-1,3,0,1,-2,-1,-1
1463381718620752,-1,-2,-4,2,0,1,0,-3
1463381718635763,-2,0,-3,-1,0,-3,-1,-2
1463381718635763,1,4,5,-2,-2,-1,0,-1
1463381718643757,0,-4,-1,3,-1,0,-2,-1
1463381718643757,-2,0,-5,2,0,0,-1,-1
1463381718657807,0,-5,-1,-3,0,0,-1,-1
1463381718657807,0,3,5,0,-3,-1,-2,0
1463381718674778,3,3,4,-3,-2,-2,0,1
1463381718674778,0,1,4,1,0,-1,-1,-2
1463381718680787,0,-1,0,-1,-1,0,-1,1
1463381718680787,0,-2,3,2,1,0,-1,0
1463381718695866,-1,-4,-8,3,0,-1,-2,-2
1463381718695866,0,-1,2,-5,-2,-4,-2,-1
1463381718703828,0,0,0,1,-1,0,-1,-1
1463381718703828,-3,0,-9,-2,-1,-1,-2,0
1463381718718811,-2,-1,1,-3,1,0,-1,-1
1463381718718811,2,-1,4,-3,-1,0,-1,1
1463381718733822,-2,-2,0,1,0,0,-2,-4
1463381718733822,1,4,2,-1,0,-1,0,0
1463381718740857,0,-2,1,1,2,1,-1,-1
1463381718740857,-3,-2,-6,-1,-2,-1,-1,1
1463381718755851,-2,0,-6,-3,-3,-1,0,-1
1463381718755851,-2,0,5,-3,-1,-2,0,-1
1463381718770919,-1,-1,1,1,-1,-1,0,0
1463381718770919,1,2,-6,-4,-1,-1,-3,-1
1463381718785898,-3,-3,5,6,-2,-1,-2,-1
1463381718785898,0,0,-6,-5,0,-1,0,0
1463381718793891,-1,-3,-5,-4,-2,0,1,0
1463381718793891,-1,-2,-3,-2,-1,-1,-1,-2
1463381718808900,-3,0,-3,-4,-1,3,-1,-1
1463381718808900,0,4,8,1,-2,-2,-2,-2
1463381718830890,15,3,-1,5,2,4,1,8
1463381718830890,-5,3,4,-1,-3,-1,3,-2
1463381718845902,-11,-7,-11,1,0,-6,-18,-15
1463381718845902,-19,3,-6,-8,-4,-2,10,-1
1463381718852969,2,-4,5,-5,-3,-2,-3,-3
1463381718852969,4,12,3,2,0,-1,-3,3
1463381718867915,21,1,2,4,1,4,4,8
1463381718867915,3,13,1,-3,-5,-2,13,2
1463381718882991,3,9,-2,-11,-2,0,5,12
1463381718882991,28,-4,-3,4,2,3,6,17
1463381718898000,-28,-19,-18,-1,0,-3,-19,-26
1463381718898000,3,0,12,3,-2,-4,20,-7
1463381718905943,19,7,4,2,-3,-4,-24,-21
1463381718905943,-29,-27,-23,-16,-7,-3,7,-8
1463381718920967,52,34,7,16,6,10,3,50
1463381718920967,31,10,44,-2,6,5,-1,34
1463381718936002,-5,11,9,-4,-4,-4,-26,-5
1463381718936002,-29,-23,-2,-10,-8,-1,-19,-3
1463381718942969,90,8,18,6,10,9,-8,73
1463381718942969,-91,-8,-19,-5,-3,-2,14,-50
1463381718958018,86,-2,-7,-8,-9,-16,-1,-23
1463381718958018,43,13,11,2,-1,1,-9,16
1463381718965997,-39,0,-18,-3,3,0,4,-37
1463381718965997,-56,-24,-16,-5,1,5,13,9
1463381718981034,-19,-1,22,-4,0,5,-8,25
1463381718981034,36,0,-2,-9,-5,0,-2,20
1463381718996067,-89,-20,100,-8,-4,-9,-5,-46
1463381718996067,-86,-34,-39,-21,-4,-12,-23,-23
1463381719003072,59,67,19,-1,-6,-2,-15,27
1463381719003072,-28,-37,12,5,-1,1,1,44
1463381719018024,54,8,-75,3,2,6,26,19
1463381719018024,-27,-13,47,-3,-13,-24,-24,-101
1463381719026030,-8,-4,8,-13,-11,-15,-24,-13
1463381719026030,46,9,-49,3,3,9,-17,-1
1463381719041040,-71,-2,-21,-4,0,-1,-14,2
1463381719041040,35,16,5,-5,6,11,26,59
1463381719056065,-74,-26,-4,15,6,-1,-25,-35
1463381719056065,-19,17,-41,-10,-2,-1,5,-18
1463381719063070,4,-38,-12,7,-8,-9,-33,-30
1463381719063070,28,-21,0,-7,0,17,-5,42
1463381719078127,127,-17,18,1,29,27,82,91
1463381719078127,-109,-22,19,13,-10,-20,-22,-89
1463381719086078,39,33,35,14,4,-7,-9,1
1463381719086078,85,-78,41,-38,-15,-13,-3,-46
1463381719101096,3,-6,-75,-36,-30,-29,-41,-63
1463381719101096,-47,20,19,14,12,25,23,64
1463381719116091,-70,-12,45,-4,-15,-36,-33,-76
1463381719116091,105,3,-61,-14,-2,8,26,37
1463381719123096,37,-27,-22,1,2,11,-4,5
1463381719123096,-67,18,8,-4,-9,-35,-91,-2
1463381719138168,79,7,-15,13,20,43,40,113
1463381719138168,17,2,-22,-5,0,-7,88,-63
1463381719146173,-11,25,16,3,-5,-4,-26,2
1463381719146173,-13,20,-61,18,18,15,45,-18
1463381719161122,-20,-26,46,-31,-13,-15,-11,-21
1463381719161122,-14,35,-13,37,2,18,15,53
1463381719177146,13,51,74,37,12,1,-6,59
1463381719177146,100,-7,-10,7,2,21,-17,67
1463381719183170,-128,-5,27,-13,-18,-21,34,-100
1463381719183170,74,35,-77,1,6,20,-29,77
1463381719198211,81,1,71,3,28,26,116,16
1463381719198211,-43,15,-41,-28,-19,-44,-118,-69
1463381719206154,-88,-32,-35,10,4,9,2,29
1463381719206154,6,4,1,-21,-5,-4,40,-26
1463381719221227,12,10,-59,28,11,16,41,91
1463381719221227,127,0,56,-12,-3,-1,-51,-43
1463381719236209,127,2,-49,10,-10,-21,-88,-48
1463381719236209,-102,-55,10,-10,13,14,28,42
1463381719243180,-90,61,-17,14,-22,-32,-30,-97
1463381719243180,67,-19,45,-6,17,37,37,117
1463381719258253,-79,-54,-102,-8,-3,-6,-81,-80
1463381719258253,-75,52,111,-15,-20,-35,-47,-91
1463381719266212,127,20,-69,14,-16,-6,-52,54
1463381719266212,106,9,85,21,52,36,46,62
1463381719281277,-86,22,-40,7,4,-6,10,30
1463381719281277,-43,-2,34,24,4,9,-6,-20
1463381719296287,82,-13,-49,-22,-11,9,5,46
1463381719296287,64,7,25,42,10,15,35,84
1463381719303252,46,-18,-52,-40,-10,-17,16,-74
1463381719303252,-25,2,-30,2,-20,-45,-93,-67
1463381719318236,81,34,-12,30,13,50,108,78
1463381719318236,-90,-5,-36,-31,-21,-55,-54,-72
1463381719326269,38,-52,35,7,10,17,76,76
1463381719326269,-69,11,-59,-2,-15,0,67,-15
1463381719341251,79,-24,48,-54,-13,-35,-54,14
1463381719341251,127,55,-56,19,46,96,121,127
1463381719356279,-27,15,-34,67,11,16,19,-2
1463381719356279,105,82,58,28,-11,11,-51,100
1463381719363283,66,-58,4,-49,27,25,98,14
1463381719363283,11,74,-75,27,-9,-7,-81,-47
1463381719378337,42,-22,-73,-3,2,11,44,48
1463381719378337,-87,-125,71,-38,-40,-48,-62,-100
1463381719386301,47,-5,14,32,-2,16,-17,68
1463381719386301,99,-30,24,-14,8,26,89,70
1463381719401300,-54,75,-35,-22,-11,-32,-25,-80
1463381719401300,90,-3,16,1,13,3,-9,17
1463381719416303,96,71,-20,46,12,26,41,-10
1463381719416303,-17,-65,19,-34,-2,4,62,34
1463381719423307,-128,-49,-22,-46,-13,3,16,-31
1463381719423307,41,48,-4,-2,19,8,4,-4
1463381719446354,52,106,-52,-11,-28,-1,-5,54
1463381719446354,-60,-47,36,-22,3,-11,-19,-58
1463381719453331,23,-41,11,72,21,-13,-30,-27
1463381719453331,124,57,-59,96,32,59,48,114
1463381719468341,-128,18,-20,-45,-32,-62,5,-128
1463381719468341,86,15,25,-8,0,12,-55,105
1463381719483379,61,90,-13,6,16,29,-3,109
1463381719483379,127,-75,-20,37,15,25,85,53
1463381719498361,71,-2,8,34,27,48,55,72
1463381719498361,-89,-11,7,-32,-32,-52,21,-106
1463381719505381,127,0,-45,30,1,28,18,127
1463381719505381,-118,-29,-37,1,-7,-15,17,-103
1463381719520390,-55,-23,-16,53,-9,-73,-128,-80
1463381719520390,64,-62,-5,55,5,21,63,85
1463381719535399,-89,34,-29,-32,-8,31,93,47
1463381719535399,36,-38,-7,26,15,-16,-26,-57
1463381719543405,-128,-10,25,53,14,-11,-35,0
1463381719543405,127,12,-47,-6,-4,18,-38,57
1463381719558411,-84,-7,16,-30,-12,-19,-23,-24
1463381719558411,-62,-39,22,-69,-21,-6,-86,-25
1463381719565409,-107,23,-20,-4,-8,-17,43,-37
1463381719565409,69,22,-39,23,24,39,-8,69
1463381719580419,-110,20,33,-36,-22,-4,117,-50
1463381719580419,-14,-28,-21,-19,-35,-69,-87,-54
1463381719595441,-47,-88,-22,-5,-16,-43,-98,-82
1463381719595441,30,-1,19,44,27,18,68,104
1463381719603447,77,43,19,15,-7,13,-25,47
1463381719603447,-17,16,-40,-36,11,35,127,63
1463381719618445,107,-36,0,53,23,-3,-67,10
1463381719618445,36,-57,30,3,26,56,69,47
1463381719625450,-81,-68,-36,-40,-37,-50,-74,-117
1463381719625450,15,24,-43,11,-6,10,40,43
1463381719640475,10,57,-25,-39,-7,9,21,-4
1463381719640475,-14,51,-57,-27,18,-3,9,34
1463381719648479,127,23,-90,17,9,42,86,118
1463381719648479,-72,4,59,9,-21,-29,-30,-26
1463381719663493,45,36,6,3,20,18,-21,38
1463381719663493,83,9,-13,-21,-10,-33,-8,-50
1463381719678532,-9,51,-31,26,-3,11,-6,22
1463381719678532,76,95,-47,-46,2,43,127,68
1463381719685494,-128,-62,-38,12,-9,-62,-128,-128
1463381719685494,63,23,-59,21,8,22,-6,72
1463381719700531,127,6,127,54,29,68,94,127
1463381719700531,52,7,-13,-19,29,-22,83,-87
1463381719724527,-128,-55,23,-8,-40,-104,-123,-128
1463381719724527,39,-52,19,96,26,6,-11,43
1463381719730550,63,14,18,-11,8,34,36,72
1463381719730550,-88,-5,-29,-16,-16,-44,-89,-61
1463381719746543,107,22,-24,-38,-7,49,-7,127
1463381719746543,-83,-41,-84,-40,-38,13,48,-50
1463381719754551,-76,-52,9,-14,-14,-89,-122,-102
1463381719754551,115,56,-22,-31,11,61,56,127
1463381719768568,127,61,-37,14,18,70,98,127
1463381719768568,85,18,67,-21,0,12,97,10
1463381719783565,17,40,-81,-12,0,8,100,-50
1463381719783565,-38,-48,22,75,38,-56,-128,-98
1463381719798612,127,59,-93,31,12,75,101,121
1463381719798612,-1,-37,37,-74,-53,-19,-70,-74
1463381719806591,-84,67,-102,-1,20,-31,-53,-38
1463381719806591,-15,25,-44,94,11,11,61,17
1463381719820591,124,-33,-55,-5,44,41,40,70
1463381719820591,-103,-11,3,-84,-74,-84,-113,-85
1463381719843677,-14,22,41,-40,-21,38,0,95
1463381719843677,53,-6,12,-34,-36,-46,-58,-32
1463381719858617,-128,7,27,72,25,-62,-113,-128
1463381719858617,66,0,-41,-9,-48,47,92,93
1463381719873651,-85,-72,0,13,-25,-55,-68,-93
1463381719873651,-63,4,26,76,96,41,14,53
1463381719880692,66,18,2,-34,-28,10,4,67
1463381719880692,-126,11,-37,-54,4,-33,-49,-95
1463381719904648,33,25,-19,-69,-12,25,-17,51
1463381719904648,-74,11,-13,-36,-14,8,18,50
1463381719918661,-109,-19,-45,-33,-36,-56,26,-49
1463381719918661,43,-22,-15,3,-34,13,-3,25
1463381719925665,41,-23,-112,-9,30,6,56,-60
1463381719925665,-64,4,-42,73,13,-9,-97,2
1463381719940676,127,-7,-19,12,20,-3,41,42
1463381719940676,32,7,30,-41,-22,-25,-51,-20
1463381719948681,-106,-35,115,-71,-30,14,58,25
1463381719948681,-20,21,-54,50,14,-41,-50,-99
1463381719963691,100,3,-43,12,-3,74,46,127
1463381719963691,-114,-29,-7,-69,-61,-65,-63,-128
1463381719978700,-93,6,-7,9,7,-79,-58,-128
1463381719978700,90,26,-3,122,73,15,19,87
1463381719985705,117,-9,-11,17,28,89,34,122
1463381719985705,-53,-54,19,-123,-99,-89,-26,-64
1463381720000717,-53,0,-47,-40,0,-4,-53,-27
1463381720000717,75,31,-17,51,70,56,-19,61
1463381720008721,-26,4,6,-16,-25,-25,21,-33
1463381720008721,110,19,36,-79,-27,23,56,56
1463381720023732,62,-9,68,-85,-12,12,-79,38
1463381720023732,40,18,-34,67,22,-3,15,-35
1463381720038772,-81,2,-49,-10,-30,-15,59,-65
1463381720038772,12,23,11,-67,-39,12,18,116
1463381720045777,127,1,9,68,7,6,34,115
1463381720045777,-128,-2,-49,24,9,-29,5,-128
1463381720060774,-95,-17,-11,72,-10,-52,-70,-61
1463381720060774,113,25,-20,-91,-29,10,-38,59
1463381720068780,-10,-31,-3,-46,-40,35,61,10
1463381720068780,-94,17,8,-41,16,-77,-126,-38
1463381720090780,127,-25,31,120,101,91,95,80
1463381720090780,1,-1,-12,-48,-2,38,75,15
1463381720105792,62,-27,6,-50,-56,42,12,48
1463381720105792,60,3,-49,-36,66,6,86,-68
1463381720113796,110,13,27,127,76,22,-4,75
1463381720113796,127,-16,-2,-38,3,49,112,90
1463381720128824,-89,-22,-9,-74,-50,-77,-80,-79
1463381720128824,107,32,4,-40,-56,-7,44,28
1463381720150851,103,25,1,127,67,46,46,69
1463381720150851,39,-1,-10,16,-5,16,16,77
1463381720165897,55,0,-6,42,28,-9,87,54
1463381720165897,-5,-7,-32,10,-8,-27,-11,6
1463381720173840,84,23,38,79,-14,41,123,102
1463381720173840,127,-30,-14,-26,31,40,16,45
1463381720188879,-9,-9,22,6,42,77,88,42
1463381720188879,-52,-14,18,49,-7,-18,-24,-50
1463381720203861,-7,1,-8,38,16,23,106,9
1463381720203861,82,5,-77,-31,-15,35,-25,122
1463381720218872,84,0,-14,13,-1,2,17,40
1463381720218872,60,22,-76,-41,-24,49,16,109
1463381720225938,-81,-5,27,-112,-50,-56,-16,-89
1463381720225938,2,-4,-62,65,65,8,-6,16
1463381720240949,64,14,6,63,44,59,69,108
1463381720240949,46,11,38,-74,13,9,26,43
1463381720247891,5,-8,-89,6,-31,37,85,27
1463381720247891,-20,-18,18,-29,-50,-51,-37,-12
1463381720262919,-73,7,-6,-14,-17,0,-12,20
1463381720262919,1,-24,87,63,22,2,18,-1
1463381720277923,-67,-17,-4,-47,-26,-36,-96,-73
1463381720277923,-128,-34,6,26,2,-50,-17,-128
1463381720285981,118,39,-60,-3,26,45,-44,104
1463381720285981,87,-9,29,10,9,36,100,33
1463381720301931,-11,-45,41,39,4,-65,-103,-87
1463381720301931,15,3,21,39,8,1,33,10
1463381720307996,111,20,44,-21,11,2,6,37
1463381720307996,115,3,-30,-9,13,64,54,127
1463381720331024,-15,-1,6,-50,-25,-16,-16,-84
1463381720331024,35,2,27,24,-1,-23,-4,-36
1463381720345962,-29,26,-28,-85,-50,11,127,111
1463381720345962,35,-26,1,31,23,-68,-111,-82
1463381720352990,-93,12,-69,111,65,8,47,-8
1463381720352990,-4,-19,-34,-33,-33,0,62,-48
1463381720368775,96,0,-128,98,79,27,5,82
1463381720368775,-65,10,-13,41,12,63,73,96
1463381720383366,-39,-35,39,-76,-36,-87,-115,-86
1463381720383366,-92,0,9,-17,-37,-14,42,43
1463381720398374,35,-5,-23,-64,21,45,4,-58
1463381720398374,4,-4,-6,-9,-4,-9,-19,-42
1463381720405394,19,13,21,43,33,39,51,72
1463381720405394,127,31,-34,-1,-5,33,104,47
1463381720421391,-64,-74,77,-29,-57,-89,-68,-58
1463381720421391,72,17,5,25,21,21,41,48
1463381720428456,73,19,-38,-7,-10,6,37,47
1463381720428456,-7,25,-23,-80,-36,-16,23,31
1463381720443499,127,13,27,45,44,47,1,81
1463381720443499,-63,-34,-29,36,1,-13,32,-111
1463381720465530,48,7,-31,103,80,37,-44,-23
1463381720465530,-117,-15,28,-24,-20,-15,-62,-43
1463381720473523,37,18,-46,-49,-26,-8,-43,32
1463381720473523,-72,20,-29,-81,-50,-46,30,-92
1463381720488556,119,34,-17,15,4,44,2,127
1463381720488556,8,-31,-15,-14,-1,35,127,-17
1463381720495536,-109,-34,63,-6,-23,-89,-128,-128
1463381720495536,-57,-3,-10,-4,11,16,4,62
1463381720525619,62,-62,125,60,37,27,-22,-53
1463381720525619,-128,-21,-50,4,-4,-3,-70,-74
1463381720533562,51,22,-32,-15,-1,13,40,5
1463381720533562,23,10,82,50,35,-10,-69,-33
1463381720548572,-25,7,-37,-10,-9,2,33,28
1463381720548572,76,-1,-7,-9,-5,9,20,59
1463381720563583,-85,12,-15,-13,-5,9,105,12
1463381720563583,26,-6,12,-4,9,19,89,34
1463381720578595,6,15,-16,-14,-20,-47,28,-38
1463381720578595,88,31,-24,-11,-5,12,-100,75
1463381720585599,17,-29,79,15,13,42,127,62
1463381720585599,65,-4,-35,12,8,-35,-71,-109
1463381720601609,-34,-3,-12,20,15,19,-7,62
1463381720601609,4,3,-65,-71,-20,10,27,11
1463381720608616,29,3,81,58,32,22,17,22
1463381720608616,6,-2,-4,65,21,-2,-6,3
1463381720623640,-27,-25,-5,1,-8,2,-2,-14
1463381720623640,-58,2,-19,-45,-22,-20,-23,-29
1463381720638651,-30,-14,-2,-3,1,-4,1,-13
1463381720638651,-48,-13,36,24,12,3,-38,-17
1463381720645653,93,21,-37,23,24,38,100,95
1463381720645653,-124,-44,27,-7,-22,-41,-64,-104
1463381720660676,99,-14,-11,-25,-24,-37,-30,-64
1463381720660676,40,7,27,28,21,17,22,34
1463381720683750,80,20,-16,18,14,20,29,70
1463381720683750,-31,-44,-48,-30,-2,26,80,44
1463381720698703,-36,10,127,-28,-14,-33,-109,-36
1463381720698703,50,-6,-3,44,5,-14,-5,-5
1463381720705708,30,14,-100,-55,-28,-2,-16,5
1463381720705708,-11,-21,127,20,29,15,0,3
1463381720721695,-11,-9,-44,-21,-18,-12,-31,-8
1463381720721695,31,-3,-60,-69,-41,-16,-9,-2
1463381720728766,-18,-16,-11,-54,-21,5,26,13
1463381720728766,56,22,20,8,13,18,-68,50
1463381720743711,111,29,-5,23,26,32,29,111
1463381720743711,-13,-31,-42,11,7,10,105,28
1463381720750717,1,-26,44,-31,-42,-79,-128,-82
1463381720750717,36,0,1,23,17,31,99,116
1463381720765728,-28,22,-57,-15,-17,0,-37,-9
1463381720765728,10,15,-15,-40,28,-9,-37,-36
1463381720780809,-39,-30,83,72,44,13,-32,-20
1463381720780809,-21,-26,3,-18,1,-12,-21,-28
1463381720788744,-86,-24,-7,-4,2,0,-13,-65
1463381720788744,7,25,-43,-16,-35,-17,-42,-15
1463381720803755,-46,9,-19,-59,-35,-14,2,-13
1463381720803755,-15,1,0,-4,-5,-16,-21,-39
1463381720810784,-34,-9,17,15,12,5,2,-7
1463381720810784,127,11,-12,19,8,29,16,111
1463381720825841,-15,-2,4,9,8,16,-27,34
1463381720825841,26,-1,3,14,4,-18,11,20
1463381720840852,67,7,-19,-5,-4,1,-34,39
1463381720840852,13,18,-24,-31,-19,5,6,36
1463381720848810,12,-9,52,21,33,-3,84,-37
1463381720848810,-77,-32,-12,38,12,1,-61,-91
1463381720863820,17,-1,-16,-18,-17,-11,-23,-9
1463381720863820,0,17,-30,-26,-11,1,-23,-7
1463381720878825,38,2,67,36,18,17,-8,50
1463381720878825,125,15,-36,-3,-6,12,78,85
1463381720892832,-49,-32,40,-80,-54,-41,-45,-86
1463381720892832,-98,4,-34,52,30,-7,8,-47
1463381720908829,-9,18,-32,-15,-7,22,15,-12
1463381720908829,-81,-7,24,-59,-39,-44,-47,-71
1463381720915897,-128,8,-1,-8,-4,7,-12,-22
1463381720915897,1,-5,3,11,-1,-17,-10,-4
1463381720923871,77,21,5,14,19,25,41,87
1463381720923871,33,-6,7,3,6,4,26,9
1463381720930908,-2,1,-20,5,4,19,8,-20
1463381720930908,-49,-10,16,-3,-10,-16,-27,-22
1463381720953860,1,12,-21,-18,-12,-9,4,3
1463381720953860,30,1,1,31,20,0,-15,-1
1463381720967933,-13,14,-4,6,0,-22,-49,-16
1463381720967933,46,11,1,9,-5,8,-4,33
1463381720975937,108,7,-3,-29,-8,13,0,97
1463381720975937,79,-15,-10,19,24,21,57,49
1463381720990949,-84,-21,-5,20,-5,-43,2,-101
1463381720990949,60,14,7,-12,-6,0,-34,47
1463381721005912,34,6,-1,5,9,21,24,66
1463381721005912,15,1,-25,-9,5,10,70,-14
1463381721027916,25,18,-26,-10,-5,10,9,27
1463381721027916,2,0,39,-14,-10,-5,11,11
1463381721035922,2,-15,63,47,20,-2,5,-6
1463381721035922,42,-26,-20,31,7,6,-20,2
1463381721050929,-49,21,4,-5,-1,-1,5,-26
1463381721050929,-7,10,-5,-17,-11,-5,-26,9
1463381721057934,-41,-10,-15,-26,-17,-13,-13,-30
1463381721057934,16,-21,15,-12,-4,5,-5,-2
1463381721066939,78,12,23,3,0,2,-8,62
1463381721066939,72,23,-17,20,9,10,23,53
1463381721081010,112,5,9,7,13,29,-8,87
1463381721081010,34,6,3,12,15,12,57,48
1463381721087966,-39,-19,-40,-33,-38,-80,-51,-55
1463381721087966,41,-11,29,-10,-6,-1,14,39
1463381721102977,49,9,-4,18,7,11,26,8
1463381721102977,77,17,14,10,13,27,3,59
1463381721111010,43,-6,-51,-26,-8,27,17,34
1463381721111010,-128,-36,21,-10,2,-11,7,-63
1463381721127016,-8,10,-8,43,12,-8,-40,-3
1463381721127016,-66,2,-17,2,5,6,8,-37
1463381721141056,6,20,15,-13,-7,0,15,6
1463381721141056,-46,13,-13,3,4,-3,-14,-7
1463381721148026,-19,-16,-5,-6,-3,-9,13,-69
1463381721148026,-30,0,-2,7,5,9,-9,9
1463381721171029,-22,3,13,0,1,1,0,-7
1463381721171029,-5,-3,-6,-7,-10,15,32,-13
1463381721178018,29,7,17,6,6,-38,-40,26
1463381721178018,-3,-19,-9,5,-1,-4,12,1
1463381721193028,0,7,0,-14,-11,-8,-9,-23
1463381721193028,15,8,-27,-24,-15,3,-22,21
1463381721208101,24,5,7,16,11,5,0,24
1463381721208101,2,3,-27,-22,-14,-10,-23,-57
1463381721216108,-89,18,44,4,-4,-2,-37,-21
1463381721216108,16,-6,-31,-8,1,2,13,10
1463381721231120,36,-3,6,-17,-7,-2,6,13
1463381721231120,39,26,-9,3,4,-5,-14,20
1463381721238077,55,7,-31,-6,3,13,-1,49
1463381721238077,19,-7,8,-10,-6,11,9,20
1463381721253092,-64,4,1,-13,-13,-27,26,-94
1463381721253092,-58,-4,3,2,-6,-25,-16,-31
1463381721268140,46,-2,5,-7,0,-8,1,23
1463381721268140,-55,-3,16,2,-6,-11,-2,-29
1463381721283186,-35,1,1,-21,-15,-11,-10,-20
1463381721283186,-19,-1,27,-7,-7,-16,-11,-15
1463381721291191,68,8,-66,24,30,27,12,59
1463381721291191,13,-39,16,12,8,16,26,5
1463381721306202,-88,-7,23,-23,-21,-38,-88,-94
1463381721306202,54,10,-4,4,4,7,-7,25
1463381721321211,29,7,-1,0,4,13,1,48
1463381721321211,-11,0,-2,7,3,4,28,-8
1463381721328217,-20,-8,2,-5,-9,-17,-9,-26
1463381721328217,-32,-4,-4,-3,-4,-12,-8,-25
1463381721351234,16,12,16,4,2,18,13,19
1463381721351234,-17,4,-9,1,0,-2,-7,-4
1463381721358189,-6,0,7,7,5,4,18,8
1463381721358189,17,-2,-8,-6,-5,2,-3,8
1463381721373208,20,7,3,1,0,4,19,-2
1463381721373208,-76,-14,0,1,-1,-13,-19,-26
1463381721397225,-49,-7,4,-1,-2,-2,-8,-27
1463381721397225,4,14,-14,-14,-9,-5,-4,-9
1463381721411289,-32,3,10,-10,-3,-1,2,-10
1463381721411289,-16,-4,-14,-2,-3,-5,-8,-11
1463381721418281,12,-14,1,7,3,9,-7,8
1463381721418281,10,-6,-1,-3,-2,3,8,3
1463381721441312,21,10,30,9,-2,11,6,5
1463381721441312,-24,-1,-34,-6,-5,-6,-1,-7
1463381721448243,21,-3,10,9,7,-2,6,4
1463381721448243,-20,-7,-9,4,2,7,-4,-7
1463381721463253,8,7,11,-7,-6,1,-1,10
1463381721463253,16,11,15,3,-3,-7,-1,4
1463381721471258,34,-19,-16,3,3,0,1,0
1463381721471258,-70,-5,-6,-10,-7,-9,-13,-25
1463381721486284,15,3,-5,-10,-3,3,-3,6
1463381721486284,9,1,5,3,-1,-1,1,3
1463381721501298,0,8,-1,-2,0,5,2,-1
1463381721501298,-10,2,0,-1,2,-4,-2,-3
1463381721516297,-11,-1,-3,1,-3,-1,-5,-3
1463381721516297,19,-2,-1,-2,-1,-8,-3,6
1463381721531315,-19,4,0,-3,0,3,9,-8
1463381721531315,-9,-14,-6,1,2,3,1,0
1463381721538317,-4,6,2,2,0,0,0,-2
1463381721538317,2,0,2,-1,-1,-1,-7,-3
1463381721553328,16,3,-4,-6,-1,3,-2,12
1463381721553328,0,7,-2,1,0,-1,-1,-7
1463381721568326,-13,-6,1,5,-2,-5,-4,-6
1463381721568326,6,-2,-2,-4,-1,0,0,0
1463381721583338,2,1,-4,-14,-2,1,-3,0
1463381721583338,-1,-3,5,-2,-2,-1,1,0
1463381721590360,-5,5,-23,10,5,0,-1,0
1463381721590360,1,9,9,1,1,1,-1,-4
1463381721606353,0,-6,0,-3,-5,-2,-2,-3
1463381721606353,1,-5,1,-5,-1,2,1,1
1463381721613371,-1,15,-1,-9,-6,-5,-2,-2
1463381721613371,-7,-10,5,0,-1,-1,-1,-6
1463381721622365,2,14,0,0,-2,-1,-5,2
1463381721622365,5,4,-5,2,0,0,2,1
1463381721628409,-2,-10,2,-3,-1,-2,0,-2
1463381721628409,-3,-6,-1,1,-1,-3,-2,-4
1463381721643419,4,10,5,-4,-1,-2,-1,1
1463381721643419,-6,-2,-5,2,0,-1,0,0
1463381721650384,-3,-7,0,-1,-1,-2,0,-2
1463381721650384,-3,-7,4,-1,0,1,-2,-1
1463381721673401,2,-7,1,-2,-2,1,0,0
1463381721673401,-1,1,-6,2,-2,-3,-1,-2
1463381721680435,-4,-5,-2,1,-1,-2,-1,-1
1463381721680435,0,1,0,-2,-1,-1,-1,-3
1463381721689415,0,-1,2,-1,-1,-3,1,2
1463381721689415,1,6,-8,-3,0,0,0,0
1463381721695446,-2,-6,14,-1,0,-1,-1,-2
1463381721695446,0,-4,0,-2,-1,0,-1,-2
1463381721710447,-2,-6,-2,-13,-2,-2,-2,-2
1463381721710447,0,-3,8,20,10,0,-1,0
1463381721725457,0,0,0,3,-1,-1,0,0
1463381721725457,0,2,1,3,1,0,-1,0
1463381721733463,2,4,-8,-7,-2,-2,0,0
1463381721733463,1,1,0,-8,-6,-2,-2,-1
1463381721740448,0,4,7,-4,-1,0,0,1
1463381721740448,-5,-1,-6,0,0,-2,-1,-3
1463381721748468,-1,-6,-1,5,0,1,0,-1
1463381721748468,-3,-2,2,-4,-2,-3,-1,-3
1463381721763526,-1,-1,6,-2,-1,-1,-3,-2
1463381721763526,1,-4,-2,-1,-1,-1,-1,1
1463381721770529,-2,-4,-1,6,-1,1,-1,-2
1463381721770529,-2,-6,0,-3,-1,-2,-1,0
1463381721800493,-2,12,-1,-3,-3,-1,-2,0
1463381721800493,-4,-3,-1,0,1,0,-2,-2
1463381721808497,-2,-2,-7,4,1,0,0,-1
1463381721808497,-4,-10,1,-6,-3,0,-1,-2
1463381721815531,3,-9,2,-5,-3,-1,-1,-1
1463381721815531,-4,8,-4,0,0,0,1,-2
1463381721823509,-3,2,2,2,1,-2,-3,-3
1463381721823509,2,3,-4,-3,-3,-1,-2,0
1463381721838520,-3,-8,3,2,-1,-2,-1,-1
1463381721838520,1,0,-1,-3,-1,-2,-1,-1
1463381721845523,1,-3,-2,-5,-3,-3,0,1
1463381721845523,-4,-6,0,2,0,0,-2,-2
1463381721853529,-3,-3,1,5,5,1,0,0
1463381721853529,2,1,4,3,2,-1,-3,0
1463381721860596,-2,-4,-2,-4,-3,-1,-1,0
1463381721860596,0,-2,-1,-1,-2,0,0,-1
1463381721868539,-3,-4,-5,-2,-1,1,0,-2
1463381721868539,-1,0,5,-1,-2,0,0,-2
1463381721883614,1,1,0,-4,-2,-1,-3,-1
1463381721883614,-2,-1,1,2,-2,-3,-3,-1
1463381721890571,-1,-3,-8,1,-2,-2,-2,-2
1463381721890571,0,1,2,-2,0,-4,-1,-1
1463381721905626,-2,0,3,-2,0,-3,1,0
1463381721905626,-1,-2,-2,1,-1,-1,-1,0
1463381721913631,1,-2,-1,1,1,-2,-2,1
1463381721913631,-3,-2,-2,-3,-4,-1,-2,-3
1463381721920635,0,1,0,-2,-2,-1,-2,-1
1463381721920635,-3,-7,-5,-3,-1,1,-2,-3
1463381721928642,-1,-3,4,-2,0,-1,-2,-2
1463381721928642,-7,-5,-15,-5,-3,-4,-1,-2
1463381721943653,-1,2,8,5,3,1,0,-1
1463381721943653,1,-5,-2,2,-1,-1,1,0
1463381721950597,-3,1,-4,-3,-2,-1,-3,-2
1463381721950597,1,1,8,-2,-2,1,0,0
1463381721965667,-1,-2,4,-4,-2,0,-3,0
1463381721965667,-1,-1,-6,-1,0,0,1,-1
1463381721973675,-1,2,-7,0,-1,-1,-3,-4
1463381721973675,0,7,5,1,-1,-1,0,0
1463381721980680,0,-4,-3,-4,-2,-2,-1,2
1463381721980680,1,1,1,0,0,0,-1,-1
1463381721988685,-1,-1,-7,1,-4,-1,0,-1
1463381721988685,1,1,2,0,-1,0,-1,2
1463381722003649,-1,-5,-1,-1,-1,-1,0,0
1463381722003649,-1,-3,-2,0,-1,-1,-1,-2
1463381722010654,-1,1,-3,0,-1,0,-2,-2
1463381722010654,0,3,1,-2,-3,-1,0,-1
1463381722025665,3,-3,4,-3,-3,-3,-1,0
1463381722025665,-3,-3,-2,-1,-1,-2,-2,-1
1463381722033670,0,0,-1,1,-1,1,0,-1
1463381722033670,-1,3,3,-1,-1,0,-2,-1
1463381722048727,-2,-4,-2,-2,-1,-2,0,-1
1463381722048727,-2,-1,1,0,0,-2,0,-1
1463381722063737,1,2,2,-4,-4,0,-1,-1
1463381722063737,-3,-5,1,1,-1,-2,0,-2
1463381722070743,-2,1,-14,4,5,2,1,-1
1463381722070743,0,2,8,9,1,-2,-1,0
1463381722085704,0,-3,-2,-3,-3,-1,1,1
1463381722085704,1,2,-3,0,-1,0,-1,0
1463381722093707,0,2,-2,-3,-2,-3,-1,-3
1463381722093707,0,2,-1,-7,-2,-2,-1,-2
1463381722109724,1,-3,2,-2,-1,0,0,-1
1463381722109724,0,1,-4,0,0,-1,-1,1
1463381722123780,1,-1,3,-1,-3,-1,1,-1
1463381722123780,-2,-5,-8,0,-1,-1,-1,0
1463381722130785,-2,0,-1,0,0,1,-2,-1
1463381722130785,3,1,4,0,-1,-1,1,0
1463381722145750,-2,-3,2,-2,0,1,-2,-1
1463381722145750,-4,-1,-7,-2,0,-1,-2,-2
1463381722153774,-3,-1,-1,1,-3,-2,0,-1
1463381722153774,1,1,2,-1,-2,-3,0,-1
1463381722168752,1,-1,3,-3,-1,-2,-1,0
1463381722168752,0,2,-1,0,1,-2,0,-1
1463381722183872,3,2,4,-5,-2,0,1,2
1463381722183872,-1,-7,-4,2,1,-2,-1,-2
1463381722190860,-5,-1,-4,1,-1,-2,-3,-4
1463381722190860,1,1,3,-6,-3,2,-1,0
1463381722205872,-2,3,-1,1,-2,-3,-2,-2
1463381722205872,1,-2,2,-4,-1,0,0,1
1463381722213894,-1,-7,-1,5,1,2,2,0
1463381722213894,-1,3,-4,-2,-3,-3,-1,-1
1463381722228918,-6,-7,2,-3,-1,-1,-2,-2
1463381722228918,-1,-2,4,1,1,1,-1,1
1463381722243936,1,-1,-1,-1,-3,0,1,-1
1463381722243936,-2,-3,-9,0,-2,-1,-1,-2
1463381722250904,-2,-5,-1,-2,0,-1,-2,-2
1463381722250904,-1,3,2,0,-3,-1,-2,-2
1463381722265915,2,0,2,-4,-4,-4,-1,0
1463381722265915,-4,-1,-7,2,-1,0,-3,-1
1463381722273920,-1,-2,-1,1,-3,-1,-2,0
1463381722273920,0,3,2,0,1,-2,0,-3
1463381722287945,0,-2,-1,1,0,-2,0,1
1463381722287945,2,-1,2,-3,0,0,0,-1
1463381722302940,0,1,4,-2,0,-2,0,2
1463381722302940,2,-1,-2,2,0,1,0,-1
1463381722310947,0,-3,0,1,0,-2,-3,0
1463381722310947,1,-3,3,-6,0,-1,0,0
1463381722325994,0,1,-1,-2,-2,-2,-2,-3
1463381722325994,-7,0,-4,-7,-4,-4,-6,-4
1463381722340966,0,7,2,-1,2,2,1,-1
1463381722340966,2,0,0,1,0,0,-1,2
1463381722355994,-2,-3,0,0,-3,-2,1,2
1463381722355994,0,-3,-5,2,0,0,0,1
1463381722371051,0,-5,2,-3,-2,1,-1,1
1463381722371051,-2,-3,-6,0,-2,-3,0,-2
1463381722377992,-1,1,-1,2,0,0,-1,-3
1463381722377992,-1,3,6,-1,-1,1,-1,0
1463381722386015,-2,-3,5,4,0,1,0,-2
1463381722386015,0,0,-7,1,-1,-2,1,-1
1463381722393066,0,-2,-2,3,1,2,0,0
1463381722393066,3,-2,3,-3,-3,-1,-2,-1
1463381722409081,-2,0,1,-7,-3,-1,-2,0
1463381722409081,-1,0,-2,1,2,0,0,0
1463381722423041,1,-2,-2,-3,-3,-2,-4,-3
1463381722423041,-5,-2,-5,2,-1,1,-2,-5
1463381722438047,-2,-8,-2,-6,-1,-1,0,-3
1463381722438047,1,11,2,-1,0,1,-1,3
1463381722453047,19,13,5,0,-2,-1,3,15
1463381722453047,12,-9,-15,0,2,-1,-4,-2
1463381722461111,-62,-3,-3,1,-2,-10,-17,-40
1463381722461111,-6,-3,-2,-3,-3,-5,-6,0
1463381722476122,10,4,0,-9,-2,-1,-1,2
1463381722476122,9,7,4,1,3,4,-1,2
1463381722483127,-61,-31,-37,-27,-9,-9,-11,-33
1463381722483127,-20,17,29,8,3,-4,-3,-13
1463381722491094,22,-5,-36,-32,-7,-6,-13,1
1463381722491094,-12,-1,30,19,2,2,-17,13
1463381722506104,73,17,-20,13,12,13,32,54
1463381722506104,-10,-31,23,15,8,7,18,-14
1463381722513157,-71,-14,-9,-30,-16,-19,7,-77
1463381722513157,-6,-29,17,-6,-8,-6,-5,-3
1463381722536105,53,58,38,25,8,8,-1,43
1463381722536105,40,20,-40,-26,-10,-8,-16,-10
1463381722551115,-116,-35,46,9,-35,-68,-107,-73
1463381722551115,113,-12,-69,-4,10,25,115,114
1463381722558144,-109,24,31,-35,-29,-31,-77,-78
1463381722558144,124,16,39,50,24,24,29,90
1463381722581142,-17,-63,-63,-18,-17,-32,-72,-85
1463381722581142,74,6,-12,-12,-15,-21,-96,64
1463381722596149,66,-49,49,-19,6,41,37,66
1463381722596149,23,103,3,29,-15,-25,62,-52
1463381722604155,-76,7,-1,37,29,16,67,-10
1463381722604155,57,18,-13,22,4,10,-18,26
1463381722611169,-40,9,-60,-13,-12,-23,57,-60
1463381722611169,66,-4,-5,-31,-3,26,-51,103
1463381722626185,44,-25,1,-1,20,26,58,41
1463381722626185,52,38,-47,-2,-16,-18,-128,-13
1463381722633184,25,110,79,36,51,68,73,111
1463381722633184,40,92,-35,8,-10,-35,-6,-77
1463381722648195,-70,46,18,22,-2,-6,-29,46
1463381722648195,16,19,-69,-5,3,11,-1,21
1463381722656201,87,-69,-51,-2,-6,-1,42,105
1463381722656201,91,-102,-98,-54,8,43,6,46
1463381722663233,-113,-128,46,-16,-11,-24,77,-122
1463381722663233,3,-48,113,-4,11,-31,-103,-104
1463381722671239,-83,69,-5,77,18,0,-11,-13
1463381722671239,113,45,6,67,32,39,27,109
1463381722686222,-85,-62,-2,-34,1,12,51,-68
1463381722686222,19,11,8,-16,-23,-32,-73,-94
1463381722693254,-60,-5,-84,-68,-12,12,62,45
1463381722693254,-71,-39,-10,-15,-13,-32,1,-128
1463381722708248,68,27,3,20,1,-3,-39,86
1463381722708248,-5,-58,-25,-3,26,54,28,99
1463381722716302,-3,-14,1,-16,-22,-26,26,-128
1463381722716302,-69,93,-49,1,-17,-51,-39,-65
1463381722731315,71,-69,24,-51,13,67,87,112
1463381722731315,-128,-23,9,11,-13,-29,0,-128
1463381722738316,50,58,-58,-2,-19,-42,-128,-34
1463381722738316,24,40,46,58,42,69,7,102
1463381722753279,101,-90,4,-61,-13,-9,44,6
1463381722753279,-67,72,85,55,-10,-30,-50,0
1463381722761326,11,78,-54,19,5,22,61,73
1463381722761326,-128,-27,100,-82,-25,10,57,-32
1463381722776276,50,-16,32,14,-4,-28,-91,-105
1463381722776276,38,-55,7,37,27,60,67,127
1463381722783340,41,21,-11,-57,-35,-38,-68,-117
1463381722783340,-103,-72,-23,47,16,-12,40,-52
1463381722791284,89,84,-17,53,18,4,15,60
1463381722791284,-10,-65,34,-89,-36,-29,-44,-36
1463381722806296,-22,-20,5,-37,-31,-17,-39,15
1463381722806296,46,11,-41,-34,-16,3,-15,17
1463381722813315,-10,36,-36,-95,-30,-26,-53,16
1463381722813315,-22,46,1,9,-7,2,124,-60
1463381722828371,-128,-37,53,46,-27,-70,11,-121
1463381722828371,-25,20,-100,4,-14,-34,-86,-21
1463381722836331,63,-38,36,43,36,92,110,104
1463381722836331,-88,-51,-11,-80,5,-39,-70,-99
1463381722843382,-2,28,-28,98,7,3,-42,78
1463381722843382,82,0,127,-13,4,60,113,100
1463381722851327,-98,-31,-87,70,8,-98,-118,-98
1463381722851327,104,64,27,103,25,18,27,70
1463381722866352,93,-29,-10,-13,-33,22,71,82
1463381722866352,-7,28,7,-96,17,4,38,17
1463381722873357,-7,52,-2,10,20,43,101,39
1463381722873357,85,-50,3,58,31,45,79,81
1463381722888365,-77,-23,-25,-12,-7,-21,-95,-75
1463381722888365,5,-11,-61,-62,-44,4,60,-31
1463381722895370,9,-28,18,-97,-39,15,66,3
1463381722895370,40,-24,56,70,15,-91,-128,-127
1463381722903376,127,121,-128,102,61,101,59,127
1463381722903376,-45,-60,121,-53,13,13,-8,-70
1463381722910380,-76,15,-47,106,21,-55,-71,-128
1463381722910380,26,-24,-23,11,2,51,89,125
1463381722925391,125,20,13,-79,-25,3,-88,64
1463381722925391,-83,20,-46,87,24,2,-48,-87
1463381722933397,-32,29,-9,-19,-16,-54,-66,-10
1463381722933397,58,-14,-55,-120,-95,-15,19,62
1463381722948407,21,-7,-39,-25,51,36,106,53
1463381722948407,-22,76,-128,105,32,-31,-57,-32
1463381722955413,16,14,-2,-27,20,84,81,103
1463381722955413,-106,-44,29,-63,-14,28,37,-33
1463381722963446,-91,32,-33,103,-8,-73,-99,-91
1463381722963446,127,7,-80,67,5,19,45,127
1463381722970450,12,37,-54,-87,-47,13,21,31
1463381722970450,106,-53,72,-35,9,-22,-53,-66
1463381722985421,15,38,54,10,32,18,38,-13
1463381722985421,1,-2,-56,-49,-28,4,-41,60
1463381722993466,-35,-48,127,-49,-38,-73,28,-82
1463381722993466,104,-32,-125,86,18,0,-4,93
1463381723008450,32,-14,-107,-16,-32,5,-8,33
1463381723008450,113,-16,33,-41,13,18,75,-48
1463381723015460,61,3,-29,65,13,-8,-60,55
1463381723015460,50,10,-83,-12,1,57,67,64
1463381723023460,-128,-92,61,-34,-55,-86,-44,-128
1463381723023460,20,18,-37,90,31,16,41,100
1463381723030520,115,-4,-48,1,-11,24,-4,91
1463381723030520,2,-26,72,-46,8,-3,-8,-1
1463381723045525,127,95,-58,19,82,68,-1,127
1463381723045525,14,-14,27,-26,-12,10,67,-20
1463381723053530,28,-24,11,-69,-13,-7,-113,3
1463381723053530,7,60,2,70,25,39,69,19
1463381723068539,21,42,82,-64,-73,-57,-71,-43
1463381723068539,-19,-7,13,60,40,50,21,76
1463381723075495,60,-31,21,39,10,15,41,23
1463381723075495,-68,13,-19,-22,4,-9,-1,-35
1463381723083551,64,2,6,-40,-10,3,32,42
1463381723083551,7,9,-58,-32,-35,-38,10,-9
1463381723090557,-1,-3,62,-16,-1,-10,120,-33
1463381723090557,2,-37,59,35,-1,-35,8,25
1463381723105518,17,29,91,84,39,53,88,17
1463381723105518,46,0,-128,-51,14,-43,-102,-41
1463381723113573,76,16,-57,70,48,74,73,127
1463381723113573,25,-5,-17,-84,-14,58,60,-8
1463381723128583,-128,24,-36,-28,-53,-106,-100,-104
1463381723128583,123,24,-34,51,12,78,90,127
1463381723135529,89,-11,-16,-128,-59,-1,7,19
1463381723135529,-128,94,59,77,29,-24,-128,-52
1463381723143534,116,-58,-128,108,31,-14,-44,-24
1463381723143534,4,25,31,-21,1,29,-50,-14
1463381723150599,2,30,-35,-9,11,0,-9,25
1463381723150599,-3,-40,-99,15,-27,-48,-98,-21
1463381723165549,-61,3,-78,-128,-56,25,97,63
1463381723165549,-92,2,127,-28,15,-4,25,-10
1463381723180625,-46,-9,-34,110,55,9,-96,-77
1463381723180625,88,-6,-62,69,38,36,31,76
1463381723195572,96,-15,21,-57,-29,32,80,49
1463381723195572,-105,28,-65,-62,-23,-91,-112,-128
1463381723203605,127,23,-67,62,29,62,24,127
1463381723203605,-30,-38,32,-128,-98,-37,70,-79
1463381723210611,-128,61,11,-10,23,-71,-128,-117
1463381723210611,127,-24,-94,90,47,67,72,127
1463381723218617,-73,-32,69,-25,-26,-20,-22,-74
1463381723218617,-99,32,-42,-9,15,-23,-28,-6
1463381723233598,-89,-10,-60,106,69,4,-72,-128
1463381723233598,59,-33,-32,7,-10,-10,44,49
1463381723248607,25,-27,76,-41,8,63,114,96
1463381723248607,-127,21,-92,41,16,-41,-27,-128
1463381723255613,127,-3,-85,41,3,13,53,105
1463381723255613,30,16,88,-60,34,45,55,31
1463381723263619,65,71,-95,99,26,4,15,69
1463381723263619,45,-119,91,-111,-52,10,-12,-16
1463381723270623,-128,34,59,31,14,-51,-70,-126
1463381723270623,127,-21,-77,87,31,1,-67,-26
1463381723286634,62,-13,-62,-23,-37,16,-70,72
1463381723286634,-10,-39,83,11,-42,-32,53,-54
1463381723293639,98,-13,-62,9,36,-19,-47,-39
1463381723293639,74,13,-8,76,42,33,-15,111
1463381723315655,-116,-87,-11,-32,-51,-61,-29,-128
1463381723315655,5,27,-124,90,32,-11,-77,7
1463381723323721,39,24,11,-8,-3,27,26,95
1463381723323721,71,4,-46,-88,-46,-29,27,34
1463381723330727,104,36,-5,32,61,66,76,95
1463381723330727,127,27,-87,-60,-1,7,7,24
1463381723338732,41,24,-10,-58,-29,2,-8,74
1463381723338732,-16,-40,5,-65,-60,-89,-53,-86
1463381723353698,-128,-10,-68,125,59,3,-24,0
1463381723353698,105,38,-80,17,-16,72,24,104
1463381723368711,61,39,41,55,29,-7,-16,2
1463381723368711,2,-3,-72,-57,-47,-57,-6,55
1463381723375759,-77,-46,65,-15,-54,-13,103,0
1463381723375759,44,0,51,-17,-35,-45,-45,-39
1463381723383764,62,0,55,27,29,23,52,27
1463381723383764,127,-13,23,-3,11,73,74,78
1463381723390710,-82,38,-69,-23,-4,-42,-15,-13
1463381723390710,58,-15,-29,64,71,57,56,94
1463381723405720,49,95,-128,-33,2,54,27,54
1463381723405720,91,9,75,-85,-36,-42,50,-20
1463381723413754,-76,9,-62,-10,13,9,8,21
1463381723413754,31,7,-25,27,2,-20,58,37
1463381723428754,127,33,-121,-34,-48,89,123,127
1463381723428754,-68,-22,75,-98,-25,-81,-78,-84
1463381723435743,-9,-41,-50,60,46,-15,-8,-1
1463381723435743,112,64,-57,-14,58,79,93,122
1463381723443816,-26,-35,87,-103,-77,-87,-26,-89
1463381723443816,-7,7,-23,-48,-47,-21,-44,-101
1463381723450817,-47,4,-38,-45,-35,-13,-14,11
1463381723450817,2,45,35,-64,-19,28,45,-34
1463381723465762,-125,-55,-48,63,23,-48,-50,-112
1463381723465762,-54,29,-84,89,40,15,-10,63
1463381723473768,121,8,33,-44,-29,11,-12,-7
1463381723473768,-46,-26,27,6,17,32,-7,31
1463381723488797,52,16,-49,-27,-9,-45,-96,-7
1463381723488797,-5,18,89,69,27,32,77,74
1463381723495786,-31,-15,-74,72,-5,-32,-28,-13
1463381723495786,2,62,-32,42,12,-12,23,46
1463381723503809,43,19,-44,0,36,54,41,9
1463381723503809,-54,16,-46,-34,26,14,54,-25
1463381723510807,-25,3,-28,-13,-49,36,80,16
1463381723510807,30,-41,-98,-84,-82,-68,-108,-14
1463381723525865,-128,-22,11,-13,33,-20,-23,-89
1463381723525865,127,12,-128,77,54,35,-24,85
1463381723533875,14,-1,-7,-21,15,58,52,59
1463381723533875,9,-25,8,-46,-30,-30,35,-117
1463381723548820,-35,48,68,-29,-30,-12,18,84
1463381723548820,61,9,-23,-9,-15,51,108,99
1463381723563848,77,-7,124,56,39,-6,27,17
1463381723563848,40,-28,-84,23,4,-10,-80,14
1463381723570834,114,-34,21,-37,-5,6,-63,18
1463381723570834,21,-9,-30,-44,-53,-9,16,-5
1463381723578856,104,26,58,81,92,64,12,127
1463381723578856,36,-3,37,-45,16,-48,7,-54
1463381723593865,9,-22,98,68,30,-34,-17,-31
1463381723593865,59,18,-128,-33,-46,-27,1,52
1463381723600868,102,-31,-41,-128,-57,16,-16,28
1463381723600868,-37,-27,44,34,-40,14,33,-38
1463381723607874,36,-9,-39,47,45,-2,-76,2
1463381723607874,92,-7,4,-27,12,92,47,105
1463381723615867,-78,-53,57,-80,-88,-128,-100,-108
1463381723615867,20,21,38,121,65,20,36,88
1463381723622872,112,40,-128,-43,-29,47,75,94
1463381723622872,5,-48,127,4,0,-17,68,-19
1463381723630907,-80,2,-70,24,28,-48,-24,-85
1463381723630907,0,-6,-82,22,-8,-14,-30,13
1463381723645949,113,-12,7,-51,-25,69,122,102
1463381723645949,-128,25,52,13,55,-72,-89,-86
1463381723653910,20,23,-34,76,69,39,19,25
1463381723653910,84,36,-64,-49,-32,1,56,100
1463381723667916,108,47,1,-77,-65,76,64,127
1463381723667916,-114,-32,88,-11,15,-117,-128,-128
1463381723675909,-27,-22,-63,88,62,-1,25,1
1463381723675909,66,43,-128,-100,-34,63,47,127
1463381723683931,-77,-40,62,0,-9,16,79,-31
1463381723683931,-124,-31,-77,43,-38,-67,-82,-91
1463381723690981,125,13,-80,52,-6,19,6,69
1463381723690981,19,19,-14,-121,-20,118,101,95
1463381723705991,-7,-56,73,37,42,-122,-128,-128
1463381723705991,48,15,-104,112,114,67,19,97
1463381723712948,59,21,-69,-128,-100,0,76,100
1463381723712948,59,-15,64,65,-31,2,23,23
1463381723729964,-128,6,-95,115,95,-2,-17,-64
1463381723729964,124,16,-104,36,35,27,-14,-21
1463381723735966,-29,-49,39,-128,-56,84,77,78
1463381723735966,-128,-44,35,102,-9,-118,-125,-126
1463381723743975,70,-19,-7,86,17,3,-45,92
1463381723743975,27,-46,-70,-58,-26,16,82,81
1463381723751023,78,-17,-119,-99,-53,18,19,81
1463381723751023,-46,23,52,-128,-13,-8,44,-67
1463381723773013,-128,-19,23,26,-2,-84,-87,-128
1463381723773013,115,64,-128,-44,-26,43,94,127
1463381723788092,-16,-49,122,-128,-57,-35,72,-119
1463381723788092,-86,51,-45,101,77,-31,-86,-42
1463381723803037,127,75,-62,92,72,42,22,116
1463381723803037,13,45,-46,-110,-91,7,67,44
1463381723811049,58,29,69,-79,-7,33,7,106
1463381723811049,-49,-8,-10,80,54,-76,-110,-103
1463381723818074,88,63,-106,63,-5,29,29,97
1463381723818074,61,40,65,-29,-23,33,47,86
1463381723826083,-52,75,-43,82,45,-47,-128,-108
1463381723826083,39,28,-30,37,4,55,44,35
1463381723833087,81,29,-36,-128,-12,-12,48,17
1463381723833087,-35,30,3,-6,-40,-20,6,-23
1463381723848084,21,-15,-6,-25,-35,-39,-29,-21
1463381723848084,27,61,127,1,21,4,31,0
1463381723856074,-13,1,-65,53,38,-4,-56,-102
1463381723856074,77,-10,-43,-66,-36,-1,7,-7
1463381723871098,45,54,1,-96,32,28,88,20
1463381723871098,-36,25,-103,83,71,41,-20,-24
1463381723879088,127,-18,58,7,-37,28,15,115
1463381723879088,-43,-43,-59,-94,-27,-55,-20,-59
1463381723886094,34,9,-20,42,-28,-3,-52,81
1463381723886094,76,-2,-41,-32,28,1,11,50
1463381723893159,-42,2,-119,-21,-8,-2,18,86
1463381723893159,76,-15,31,-117,-47,22,18,54
1463381723908170,-16,-12,74,-55,-42,-21,18,-50
1463381723908170,51,23,-85,10,-33,-14,-128,15
1463381723916114,23,-79,127,84,20,28,123,1
1463381723916114,60,-16,66,-36,50,-62,-68,-32
1463381723931124,37,15,-23,99,-1,32,87,42
1463381723931124,112,9,-58,-14,8,48,93,103
1463381723938130,47,21,26,-76,-20,68,94,96
1463381723938130,-52,-37,26,97,61,-75,-81,-71
1463381723946137,57,8,-64,86,54,18,21,64
1463381723946137,50,-11,-51,-60,14,12,47,63
1463381723961146,19,-4,-112,-54,-32,-15,14,43
1463381723961146,-17,14,16,-76,-63,26,37,18
1463381723976157,-75,-2,13,-58,-26,-26,-22,-66
1463381723976157,84,-13,53,3,-18,5,-23,88
1463381723983222,-55,-44,32,63,42,-96,-70,-122
1463381723983222,-86,3,46,127,28,1,-17,51
1463381724013244,97,28,-4,-69,-17,49,103,93
1463381724013244,49,4,-51,-92,-48,42,26,46
1463381724021200,51,-37,-67,13,28,-6,-23,6
1463381724021200,-82,20,-76,-65,-26,50,105,20
1463381724028254,-21,-46,74,-78,-31,-82,-91,-38
1463381724028254,45,30,-13,42,21,50,30,103
1463381724043265,30,-12,1,-6,-31,-13,2,-1
1463381724043265,-51,-32,-31,-2,16,-3,-7,-26
1463381724058287,-2,14,-58,26,-15,17,26,7
1463381724058287,80,18,23,-71,-34,17,44,6
1463381724066223,11,3,9,-33,24,23,-44,52
1463381724066223,-6,-76,80,79,21,-34,-90,-96
1463381724073227,85,40,-64,-91,-40,-11,102,48
1463381724073227,12,-35,118,-16,44,21,-29,31
1463381724081232,-21,-4,-65,88,33,-20,-58,-49
1463381724081232,51,12,-54,63,-2,6,-44,9
1463381724096305,16,-4,4,-75,-37,-12,-14,-2
1463381724096305,-58,14,-65,-1,-25,-15,14,-14
1463381724103307,32,16,-128,-89,-16,13,59,98
1463381724103307,-20,-17,81,-23,-16,6,22,-17
1463381724111269,-21,-3,-75,57,48,-1,-54,-33
1463381724111269,-1,5,-38,67,20,-10,44,-57
1463381724118320,-8,1,-35,-27,-27,12,-28,-25
1463381724118320,65,4,-3,-71,-41,36,5,39
1463381724126318,6,-9,59,-40,-8,2,-35,-59
1463381724126318,56,10,22,43,15,-89,4,36
1463381724133331,127,2,15,76,29,29,111,127
1463381724133331,-100,-30,-8,-88,-50,-82,-87,-99
1463381724156288,-33,0,50,13,6,15,-62,-2
1463381724156288,14,16,-13,3,-27,21,-7,-11
1463381724163305,127,18,-60,-55,4,63,43,127
1463381724163305,-10,-7,23,58,58,19,1,-43
1463381724178300,1,2,-77,93,38,-20,-34,-27
1463381724178300,13,4,-48,-18,-13,-43,-21,3
1463381724186322,4,5,58,4,-19,16,12,14
1463381724186322,93,23,-44,-62,-35,57,81,83
1463381724193372,-51,-11,22,-12,-8,-34,-1,-42
1463381724193372,-79,24,-28,-5,10,-3,-12,-50
1463381724208324,-25,-7,30,-6,-10,-12,7,-19
1463381724208324,7,-3,-6,13,14,39,0,9
1463381724216329,-54,-15,8,23,9,-24,-7,6
1463381724216329,81,9,8,14,7,6,32,63
1463381724231337,-41,-17,-26,-46,-24,-55,-5,34
1463381724231337,-13,-8,-16,-32,-26,-62,-109,-124
1463381724238345,-67,20,96,68,13,21,77,-10
1463381724238345,13,0,-60,17,18,13,55,53
1463381724246365,82,4,-58,-59,-12,45,16,81
1463381724246365,-29,6,127,89,50,36,65,2
1463381724253352,5,-13,-38,100,37,7,-45,-1
1463381724253352,-2,-12,-35,-33,-17,-8,-37,13
1463381724268380,-44,-10,-28,-54,-30,1,32,-22
1463381724268380,-40,-22,-13,-37,-12,-16,-10,4
1463381724283390,-30,22,-30,-40,-25,-7,-20,-34
1463381724283390,35,18,22,-13,-12,-3,-6,21
