timestamp,emg1,emg2,emg3,emg4,emg5,emg6,emg7,emg8
1461662314794215,-2,-3,0,-1,0,0,-1,-1
1461662314794215,3,5,0,1,1,-3,-1,-2
1461662314802217,0,5,5,4,1,-1,-1,1
1461662314802217,-6,-7,-3,2,2,-3,-2,-3
1461662314818229,1,3,6,-3,-1,-2,0,0
1461662314818229,2,8,-1,-2,-1,1,-1,3
1461662314818229,-5,-10,-2,-1,-1,-1,0,-3
1461662314818229,-1,-7,-5,-3,-3,0,-4,1
1461662314832238,1,-5,-11,-9,-5,-1,-1,0
1461662314832238,-2,2,6,6,2,0,-3,0
1461662314839261,-3,1,-4,1,1,-2,-2,-2
1461662314839261,-2,4,3,-2,0,0,0,0
1461662314854254,-2,-3,3,3,1,1,1,-1
1461662314854254,-2,0,-2,-6,-5,0,-1,-1
1461662314862296,3,2,-3,-1,-2,-3,0,0
1461662314862296,-1,-3,-9,0,-1,-3,0,-1
1461662314877782,-2,0,5,-3,-1,0,-3,1
1461662314877782,0,1,4,1,1,-1,0,-1
1461662314878783,2,-2,-3,0,-1,-1,-1,0
1461662314878783,-2,-4,-6,-1,-3,-1,1,-1
1461662314892317,-2,2,2,-2,0,-1,0,1
1461662314892317,-3,-4,-4,-4,-2,-1,-2,-1
1461662314899783,-1,-2,6,-4,-1,-3,-2,-2
1461662314899783,-2,2,-2,-1,1,-1,-1,0
1461662314914808,-1,1,-3,1,0,0,-1,2
1461662314914808,-1,-4,0,0,-1,1,1,-3
1461662314922309,2,-4,-4,-4,-3,0,-1,0
1461662314922309,-1,3,8,-1,-1,-2,-1,-1
1461662314937870,-2,2,-9,-2,-1,0,0,-2
1461662314937870,-1,-11,-1,-1,-2,-3,-1,0
1461662314938811,-3,-2,2,5,1,-1,-3,-4
1461662314938811,0,1,4,1,-2,0,0,-2
1461662314952321,-2,2,0,-1,1,-1,0,0
1461662314952321,4,1,-4,-2,-1,-2,-1,1
1461662314959885,-3,-4,-3,-5,-4,-2,-1,-3
1461662314959885,3,1,0,0,-1,-1,0,1
1461662314974838,-3,0,-2,0,-2,2,3,-1
1461662314974838,-1,0,-1,-1,0,0,1,2
1461662314982344,-1,-9,-17,-5,0,-2,1,-4
1461662314982344,-2,3,8,-5,-2,-2,0,-3
1461662314998356,-1,0,0,1,-1,-1,0,-1
1461662314998356,0,-4,-2,5,0,3,2,4
1461662314998855,1,1,2,3,-3,-3,-5,-3
1461662314998855,-2,-1,-8,0,-1,-1,-3,-3
1461662315012363,-5,-2,4,0,1,0,-1,-1
1461662315012363,0,3,2,-2,1,-1,2,0
1461662315019869,1,-3,-6,-2,0,-2,-3,-4
1461662315019869,1,-2,7,0,-3,-3,-3,-1
1461662315034880,-3,4,-2,1,1,0,-2,0
1461662315034880,0,2,-5,-1,-2,0,0,2
1461662315042385,0,-2,-1,-7,-4,0,-2,-2
1461662315042385,-3,-4,-2,-1,1,0,-2,-4
1461662315057395,-6,-2,5,-2,0,-1,0,-1
1461662315057395,0,0,5,1,0,-1,0,2
1461662315065400,2,1,-1,-3,-4,-2,-2,-5
1461662315065400,0,-7,-8,6,2,0,0,-2
1461662315072405,-1,4,-2,3,1,1,0,0
1461662315072405,-3,-8,2,0,1,-1,0,1
1461662315079911,1,2,-3,-4,-2,-2,-1,1
1461662315079911,-2,-1,1,-6,-4,-4,-1,-2
1461662315094941,-2,-6,-8,-1,-1,-2,-1,-4
1461662315094941,4,6,9,3,-1,-2,0,0
1461662315102427,1,-3,-3,-3,-3,-3,-2,0
1461662315102427,-1,-3,-6,0,-2,0,-3,-1
1461662315117437,-1,1,8,1,1,-1,1,-1
1461662315117437,2,4,-10,-6,-4,-1,0,0
1461662315133966,0,-1,1,0,-1,-2,-2,-4
1461662315133966,-1,-3,-6,-5,0,0,0,0
1461662315135509,-1,1,13,6,-2,-1,-3,0
1461662315135509,2,7,12,2,3,0,-1,2
1461662315140019,-2,2,7,-4,-2,-3,-1,0
1461662315140019,-1,-8,-11,-7,-6,-4,-4,-2
1461662315154963,3,2,0,13,5,0,1,0
1461662315154963,-2,-7,-9,-1,0,0,-2,-2
1461662315162533,0,-2,3,0,-2,-1,0,-2
1461662315162533,-3,1,8,-3,-3,-2,0,-1
1461662315177544,6,18,-3,-6,-5,-3,-2,-1
1461662315177544,-13,-23,-4,-7,-4,-2,0,-2
1461662315185050,-1,-10,-7,13,6,1,2,-3
1461662315185050,-2,9,4,5,1,-1,-2,-1
1461662315194026,-2,-2,-3,-7,-4,-1,-1,2
1461662315194026,3,20,8,0,-2,0,-2,-1
1461662315199995,2,-6,-11,-1,-3,-1,-3,-1
1461662315199995,-1,-8,-2,-2,2,0,0,0
1461662315216510,-1,0,2,-1,-3,-1,1,1
1461662315216510,-1,-7,-10,-4,-3,-3,0,-1
1461662315222532,-4,-6,-3,-4,-5,-3,0,-2
1461662315222532,-2,1,-1,4,-2,2,-1,-2
1461662315237526,-4,-3,-10,-6,-4,1,-1,-2
1461662315237526,-1,-1,-1,-4,-2,0,0,-2
1461662315245027,0,4,8,5,2,0,-1,0
1461662315245027,2,-3,-11,-5,-5,-1,-1,-1
1461662315260553,-1,-5,-1,-1,2,0,0,2
1461662315260553,-3,-2,-8,-6,-3,0,-1,-2
1461662315261040,1,5,7,11,4,-1,1,1
1461662315261040,-3,5,9,-11,-6,-4,-2,1
1461662315275061,-3,-5,9,18,12,4,0,-1
1461662315275061,5,4,-4,12,6,0,-1,2
1461662315282574,-6,-7,-4,-9,-2,0,-5,-2
1461662315282574,0,3,-5,3,1,0,1,0
1461662315297593,-5,-13,-5,-11,-7,-3,-1,-3
1461662315297593,-2,1,4,-3,-6,-4,-2,-1
1461662315305070,0,-7,-2,-1,-2,0,0,1
1461662315305070,-2,5,0,-2,0,-1,-2,-1
1461662315320595,-1,-2,-3,-5,-3,-1,-2,1
1461662315320595,0,1,-4,4,2,1,-3,-1
1461662315321082,-1,1,-4,-9,-6,-2,-3,-4
1461662315321082,1,-2,0,1,1,0,-1,0
1461662315342763,-4,-5,-6,3,1,-1,-1,0
1461662315342763,-6,0,12,-1,-1,-1,0,-4
1461662315343724,1,1,-6,-4,-3,-2,1,-2
1461662315343724,-4,-10,-5,0,0,-2,0,-4
1461662315356727,0,2,-3,-6,-2,-1,-1,-3
1461662315356727,1,-6,-2,-1,1,1,-1,-2
1461662315364779,1,9,0,-2,-1,1,-1,1
1461662315364779,0,-5,5,5,-1,1,-1,-2
1461662315380739,0,6,4,-4,-5,-3,-2,-1
1461662315380739,0,-1,-7,-4,-1,-2,-3,-2
1461662315380739,-1,-3,-3,-6,-1,-1,-2,-2
1461662315380739,-1,0,-6,0,0,0,0,1
1461662315394803,0,4,13,0,0,0,0,0
1461662315394803,-1,-5,-8,-1,-1,0,-1,-3
1461662315401778,0,1,-3,-8,-2,0,-1,-1
1461662315401778,0,-3,-6,1,0,1,1,0
1461662315416763,1,-1,-6,-3,-3,1,0,2
1461662315416763,-1,0,6,2,-1,0,-1,0
1461662315432787,1,-7,-2,1,-1,-2,-2,0
1461662315432787,-3,2,-4,-6,-3,-2,0,-1
1461662315440778,-3,-2,11,0,-2,-3,1,-2
1461662315440778,5,14,-8,-2,1,-2,1,1
1461662315440778,-4,-15,-6,1,-1,-1,-1,-1
1461662315440778,1,5,4,5,2,-1,0,-3
1461662315454798,-1,-4,-6,-8,-4,-2,-2,-1
1461662315454798,1,-2,0,2,-4,0,-2,-3
1461662315461847,-1,13,8,1,1,-1,-2,-1
1461662315461847,-2,-4,-9,-4,-3,-2,-3,-2
1461662315476813,-9,-10,-5,0,-1,0,-2,-3
1461662315476813,-2,-4,-8,-6,0,-1,0,-2
1461662315484863,1,3,0,11,1,-1,1,0
1461662315484863,-3,-3,3,1,-1,-1,-1,0
1461662315499907,1,0,0,-2,-2,-1,-1,-1
1461662315499907,0,-10,-3,-5,-2,-1,-1,1
1461662315500907,-1,12,15,4,-3,-2,-1,-2
1461662315500907,-1,1,-4,-8,-5,-2,-1,0
1461662315522982,-2,-8,-9,6,7,1,2,-1
1461662315522982,-3,-1,4,2,0,0,0,-2
1461662315523925,0,-10,-8,-5,-1,-3,-1,-3
1461662315523925,1,7,8,0,0,-1,-2,-2
1461662315544997,0,2,-4,-4,-4,-3,-2,1
1461662315544997,-5,-4,0,0,-2,-2,-2,1
1461662315545955,-4,-5,-2,2,-1,-1,-1,-2
1461662315545955,-2,-4,-4,1,-2,3,1,1
1461662315560007,2,5,2,-4,-3,0,-1,0
1461662315560007,4,6,4,1,-2,0,-1,0
1461662315560965,0,-1,-4,-8,-4,-1,0,0
1461662315560965,0,-4,-4,2,2,0,0,-2
1461662315574974,3,6,12,5,-1,-1,-1,-3
1461662315574974,1,2,-9,-1,0,-2,-2,-3
1461662315581992,-5,-3,-2,-1,3,2,0,-4
1461662315581992,-5,-2,4,6,3,1,-1,0
1461662315604995,1,-3,-4,-6,-5,-1,-4,1
1461662315604995,-2,2,8,3,-1,-2,-2,0
1461662315605996,-1,-12,-6,5,2,2,1,1
1461662315605996,5,20,5,-2,0,-2,-2,0
1461662315620006,-8,-13,-4,-5,-3,-1,-2,-2
1461662315620006,-5,-4,-1,-4,0,-2,0,-3
1461662315620992,-1,-9,-6,-6,-1,-1,1,0
1461662315620992,-1,-5,-1,-7,-4,-1,0,-2
1461662315635064,2,2,-5,16,7,0,1,1
1461662315635064,4,7,2,2,-3,-1,-1,1
1461662315650027,-8,-14,-2,5,7,1,0,1
1461662315650027,3,-1,7,-6,-2,-1,-2,2
1461662315657032,-4,1,-1,-14,-9,-1,-2,-2
1461662315657032,-3,-1,-8,-5,3,0,-1,-2
1461662315665091,4,8,5,5,-2,-2,-1,-1
1461662315665091,-4,-8,0,3,-3,0,2,1
1461662315680034,-4,-12,-3,-4,3,7,21,1
1461662315680034,-5,9,-5,-12,-10,-5,-7,-7
1461662315681035,2,9,16,8,-9,-10,-19,-1
1461662315681035,-1,-5,1,21,8,1,-2,0
1461662315695064,4,-4,3,8,7,1,1,0
1461662315695064,1,-4,1,-16,-9,0,5,3
1461662315702069,-16,-3,-15,-15,-9,-3,13,-4
1461662315702069,-6,-15,-1,-7,-7,-1,-15,-3
1461662315717078,7,31,9,-9,-7,-1,6,1
1461662315717078,-4,-40,-5,19,9,-2,-6,-2
1461662315725094,5,6,-4,-14,-8,-3,-4,-3
1461662315725094,9,11,5,10,9,3,8,9
1461662315740135,-10,-13,0,-15,-8,-5,1,-6
1461662315740135,-5,10,-6,-35,-9,5,26,0
1461662315741078,6,19,4,7,-6,-4,1,6
1461662315741078,-7,-27,-7,-41,-24,-16,-33,-5
1461662315755087,-3,1,-15,6,-2,-6,-16,-7
1461662315755087,9,-25,15,39,17,3,-2,2
1461662315762151,-3,5,-15,-41,-10,-1,9,-1
1461662315762151,6,5,-22,36,14,3,13,-5
1461662315777102,-10,-9,8,-49,-22,-10,11,0
1461662315777102,-7,1,21,27,4,5,6,-7
1461662315785108,12,11,12,-20,0,4,-25,-1
1461662315785108,9,-23,-5,25,18,2,6,4
1461662315800120,-3,18,-9,24,20,9,-4,5
1461662315800120,-13,9,-11,-6,-2,10,45,0
1461662315801120,-4,1,-11,-22,-3,-6,-37,-10
1461662315801120,-15,16,14,-33,-39,-24,-50,-28
1461662315814128,8,-37,-27,-8,18,8,24,8
1461662315814128,18,40,22,55,11,-10,-8,19
1461662315822146,-8,-9,1,-11,-13,-5,-8,5
1461662315822146,1,18,0,22,16,14,10,-6
1461662315837146,-5,-7,6,-49,-24,-9,6,-5
1461662315837146,-4,-1,4,13,15,5,-27,1
1461662315844151,-13,-34,-54,4,2,-5,6,-14
1461662315844151,-5,-30,32,66,28,17,24,6
1461662315860161,16,-22,-15,3,5,11,6,4
1461662315860161,3,16,-21,-47,-29,-11,-6,-6
1461662315861162,3,21,75,83,49,25,19,0
1461662315861162,-4,32,-24,-33,-8,10,4,-5
1461662315876172,-17,10,17,31,12,-8,-17,-2
1461662315876172,18,-25,-15,-32,-16,-17,-29,15
1461662315882177,3,-2,-13,-11,-9,-7,-1,-4
1461662315882177,-3,-19,-22,-29,-12,1,16,2
1461662315897188,4,3,2,20,2,11,19,11
1461662315897188,-6,14,26,-20,-8,-7,-38,-3
1461662315904193,11,-12,-60,-53,-35,-26,-10,2
1461662315904193,-17,-38,0,-25,-5,-4,11,5
1461662315920203,-14,-26,4,44,13,-7,-38,-29
1461662315920203,-9,13,9,22,28,21,40,-5
1461662315921204,7,-10,2,18,10,17,0,17
1461662315921204,2,-3,9,-52,-19,-11,15,1
1461662315934214,12,4,8,42,3,-8,-27,0
1461662315934214,-28,-90,-18,11,5,-2,-12,-25
1461662315942223,3,45,1,-24,2,5,19,-6
1461662315942223,9,0,-13,-22,-21,-7,-9,21
1461662315957230,21,51,21,26,15,9,11,28
1461662315957230,-1,21,-15,-18,-9,2,-5,-21
1461662315964238,-3,-25,-7,-57,-47,15,36,-14
1461662315964238,-6,18,32,87,73,19,-10,2
1461662315980276,-28,-16,-25,-31,-16,-56,-62,-3
1461662315980276,7,29,-16,-5,-18,-42,-45,4
1461662315981276,-10,30,11,-25,-17,-13,-6,-1
1461662315981276,-6,103,4,-42,-23,15,42,-18
1461662315994272,5,28,7,-40,-6,32,57,7
1461662315994272,24,32,21,34,4,17,5,16
1461662316002278,-15,3,-21,114,65,8,-2,-2
1461662316002278,10,-21,35,42,9,-5,-8,-1
1461662316017289,-5,-1,6,-13,-9,11,6,-18
1461662316017289,2,-53,-23,-65,-22,-6,4,0
1461662316024337,15,24,25,43,-5,-18,-36,18
1461662316024337,-37,0,-38,8,6,-21,-53,-12
1461662316039348,-33,-47,-52,-72,-24,5,13,-44
1461662316039348,9,-23,3,55,37,37,58,4
1461662316048296,53,14,38,-8,-3,-9,-14,49
1461662316048296,-5,34,-6,5,-17,-24,23,21
1461662316078334,-14,34,4,-45,-36,-8,-25,-9
1461662316078334,6,68,-2,23,18,7,-57,-20
1461662316080333,12,43,-8,-17,3,-2,-11,-21
1461662316080333,-14,17,17,2,-4,-9,-26,-6
1461662316100345,2,0,-16,-25,-2,4,43,20
1461662316100345,-4,-8,27,23,5,16,50,12
1461662316109368,-18,-66,-14,-61,-17,4,-10,-19
1461662316109368,6,-52,-13,82,31,7,23,3
1461662316123406,14,-48,41,61,26,1,-32,13
1461662316123406,8,54,-34,-35,-20,-23,16,9
1461662316125407,-6,-38,13,-16,-15,4,64,10
1461662316125407,-21,-18,-42,-106,-43,-1,-75,-33
1461662316145422,-24,-51,18,56,27,-15,-19,-12
1461662316145422,5,12,9,-13,-5,21,63,16
1461662316153370,-2,30,-26,-12,13,-1,-26,-16
1461662316153370,15,81,5,7,-21,-12,27,23
1461662316176416,-8,-13,1,3,-11,-10,-7,-10
1461662316176416,-11,-53,-64,-55,-17,-5,-41,-9
1461662316177387,-3,0,46,33,0,-11,-2,2
1461662316177387,12,7,27,22,22,2,-4,6
1461662316198430,0,-2,16,-18,-5,2,-25,-1
1461662316198430,-14,-7,5,-94,-66,-31,-16,-25
1461662316200403,20,-80,-13,70,60,26,61,9
1461662316200403,-2,-32,-17,7,6,-5,-21,-15
1461662316220417,-24,-23,40,-68,-55,16,94,-5
1461662316220417,0,-5,-28,75,85,41,-53,-8
1461662316227423,21,75,34,-14,-22,-65,-91,30
1461662316227423,4,20,-93,-60,-16,-6,33,6
1461662316242432,-6,-78,1,-84,-58,8,-23,1
1461662316242432,6,26,-5,70,61,-5,-3,-7
1461662316251439,14,49,26,9,8,20,7,-12
1461662316251439,0,-51,30,3,25,24,69,13
1461662316274512,-47,-73,-12,-54,-33,-10,-9,3
1461662316274512,18,-58,-16,-44,-49,-28,-14,10
1461662316276472,-12,-43,-4,26,11,7,-22,-13
1461662316276472,-23,-44,-39,-79,-35,-18,2,-12
1461662316296485,24,28,9,-3,11,-3,-16,10
1461662316296485,19,-23,43,113,60,10,49,17
1461662316297486,16,-42,-35,-73,-8,23,39,-3
1461662316297486,-22,-56,-6,22,-6,14,-15,-20
1461662316325490,-18,53,-33,-3,20,-26,-27,-17
1461662316325490,-23,33,58,41,-12,-18,-40,-14
1461662316327508,55,40,-35,-54,-25,32,79,28
1461662316327508,-13,45,39,-60,-14,-28,-58,-6
1461662316348565,-5,127,-9,127,82,-13,-50,29
1461662316348565,-3,-44,-31,-128,-88,-13,41,-15
1461662316349521,-8,-34,58,102,75,51,-35,-31
1461662316349521,38,14,-9,-9,-14,-34,-36,15
1461662316371543,-22,31,-27,-2,-41,-12,65,18
1461662316371543,-11,-76,26,74,51,22,9,-11
1461662316377548,33,-20,15,-49,-16,4,-24,-11
1461662316377548,11,10,22,-12,6,12,12,-6
1461662316393558,-47,32,-33,-10,14,-13,-50,-11
1461662316393558,17,-50,-27,-64,-49,-18,5,8
1461662316395560,13,-30,13,6,1,2,16,-11
1461662316395560,-11,29,-9,2,-2,5,-5,-10
1461662316414553,-1,18,5,-15,-6,-5,8,-2
1461662316414553,10,-43,-7,-5,4,20,10,14
1461662316423559,-6,1,-11,-10,-24,-25,39,16
1461662316423559,6,19,1,-60,-20,-1,-21,-9
1461662316445614,-22,16,29,103,56,16,3,4
1461662316445614,15,-32,-2,-22,2,-8,-22,-1
1461662316447578,7,-3,-17,-17,-14,6,13,-7
1461662316447578,-26,12,-20,-17,-30,-38,-35,14
1461662316467602,2,-5,-25,-77,-8,-12,-63,-15
1461662316467602,5,-18,45,20,1,-9,0,22
1461662316476640,-5,-6,-16,36,32,16,24,9
1461662316476640,-2,4,-18,37,26,33,44,-4
1461662316498672,6,24,13,-101,-48,-4,3,5
1461662316498672,6,84,7,59,46,7,12,25
1461662316499628,27,38,-21,-42,-28,-17,-14,3
1461662316499628,-9,25,30,21,14,11,-8,-14
1461662316520646,-8,-39,-1,-10,-5,12,40,15
1461662316520646,9,-20,-28,-49,-27,-3,-1,1
1461662316526652,-3,-81,-15,5,-16,-46,-29,6
1461662316526652,-23,-31,20,24,9,-17,-24,-28
1461662316542668,8,85,4,23,4,32,-7,-8
1461662316542668,-14,93,-6,-16,-14,22,10,-2
1461662316551656,5,60,-14,12,14,-5,-16,-1
1461662316551656,12,-49,3,-22,-19,-3,4,-5
1461662316573673,-24,-59,-13,-15,-21,-21,-4,-34
1461662316573673,-21,-44,16,-49,-17,-18,-10,-8
1461662316574671,11,-43,6,29,12,4,15,-1
1461662316574671,-27,-63,-17,-66,-14,10,28,-2
1461662316594682,19,-65,24,-27,-5,2,5,-5
1461662316594682,15,-6,-24,68,49,3,-1,8
1461662316603688,-17,23,2,-22,-13,-12,-14,-16
1461662316603688,23,-14,25,13,-2,9,3,-6
1461662316625706,-17,58,-20,-18,-5,7,6,4
1461662316625706,2,85,6,-37,-12,-5,-4,-13
1461662316627704,16,60,-11,-7,-12,2,21,15
1461662316627704,5,5,4,26,8,11,-8,7
1461662316647721,-5,-75,2,23,7,-26,10,1
1461662316647721,-6,11,-3,1,-8,-36,-40,-20
1461662316655726,-10,-37,-5,6,-12,8,-39,-4
1461662316655726,11,-73,10,4,10,33,34,14
1461662316678771,-8,-97,-13,30,10,-4,2,-3
1461662316678771,1,-19,-8,-45,-31,-9,-8,-5
1461662316679776,-8,-48,14,-43,-7,-12,-2,-3
1461662316679776,9,-73,2,51,26,8,15,2
1461662316700756,14,-79,11,42,29,16,7,-3
1461662316700756,2,74,4,-14,-9,-6,-3,2
1461662316702757,-24,0,14,-29,-20,-11,-14,-6
1461662316702757,-14,-15,-6,56,36,15,10,1
1461662316717767,7,22,6,21,12,5,-1,-6
1461662316717767,19,-64,3,-8,-14,-5,-8,-3
1461662316717767,-2,6,-28,-17,-8,7,7,7
1461662316717767,-12,-28,16,-5,-5,4,29,0
1461662316719770,18,-14,-21,12,6,0,2,1
1461662316719770,-29,28,7,-4,-3,-7,-36,8
1461662316723786,-3,-60,-5,2,9,-4,10,0
1461662316723786,-30,-33,-2,0,-12,-27,-27,-16
1461662316723786,2,10,-6,-17,-6,3,-17,-7
1461662316723786,10,63,2,-4,-4,-20,16,0
1461662316724773,-7,63,6,7,-6,26,8,-2
1461662316724773,3,37,-13,-14,1,8,10,5
1461662316745823,2,20,-1,-25,-4,11,12,1
1461662316745823,-1,30,-5,19,9,7,3,1
1461662316752812,12,34,25,40,26,-14,-12,3
1461662316752812,-4,5,-2,-24,-5,0,-1,-1
1461662316775822,-2,8,11,21,1,8,-15,-4
1461662316775822,11,23,-9,-9,-1,2,5,1
1461662316777824,-8,25,-13,-5,-4,-9,-7,-7
1461662316777824,7,8,8,-3,-11,0,4,-2
1461662316797838,0,-56,-4,1,-2,-17,0,3
1461662316797838,-25,-128,0,-6,-3,12,25,8
1461662316804828,-14,-118,-6,-3,-3,6,-16,-8
1461662316804828,-2,0,-2,8,4,-30,-21,-8
1461662316819852,36,59,1,-7,-9,27,23,-8
1461662316819852,15,58,5,-2,-6,-20,-37,3
1461662316828858,-23,65,-19,-28,-17,-3,-3,0
1461662316828858,4,94,15,34,24,8,3,8
1461662316858906,14,120,-10,-8,3,-11,5,0
1461662316858906,-3,101,13,17,9,14,18,-6
1461662316861883,-11,118,29,9,4,-6,0,-2
1461662316861883,-4,100,-34,-12,-16,-13,-11,-1
1461662316880922,13,76,-8,16,6,-4,2,8
1461662316880922,-8,32,2,-18,-4,3,-3,-6
1461662316882885,-21,34,-14,-1,1,-7,0,-1
1461662316882885,7,29,10,-16,-13,20,6,6
1461662316910926,7,-17,-1,13,2,-6,-3,-2
1461662316910926,2,-18,-8,-14,-9,2,-5,-2
1461662316912927,-17,-17,-1,2,2,9,-2,-8
1461662316912927,9,-25,4,-3,-4,-6,3,9
1461662316925930,16,4,-4,-5,-3,-24,-12,2
1461662316925930,4,-22,7,7,6,19,16,-4
1461662316927931,-27,7,-7,-3,-3,-13,8,0
1461662316927931,-8,10,-9,-3,2,-1,1,6
1461662316946988,23,6,6,0,2,-3,-15,-11
1461662316946988,-8,-8,0,-2,-3,-2,-3,-14
1461662316955937,-17,-55,-15,1,-4,-1,-3,-3
1461662316955937,17,2,13,-10,-2,-5,-2,4
1461662316971961,20,3,5,-1,3,0,1,8
1461662316971961,-15,-26,-16,-18,-6,-3,0,-4
1461662316972963,-13,-5,36,17,6,0,-4,-4
1461662316972963,11,-28,-31,-2,3,-4,-2,6
1461662316973964,13,-13,0,6,0,5,7,9
1461662316973964,-14,-4,-9,-3,-3,-2,-5,-6
1461662316974964,-18,0,6,-1,-3,-8,-8,-4
1461662316974964,10,26,12,-10,-5,0,-1,1
1461662316978967,11,-15,0,-2,2,14,6,-1
1461662316978967,-10,-15,9,-2,-4,-13,-6,-5
1461662316982012,-14,11,-29,-9,-5,10,0,-3
1461662316982012,8,-8,7,2,0,-5,-8,1
1461662316985016,11,-12,-8,0,2,11,6,6
1461662316985016,-12,-8,14,2,-1,0,-3,-7
1461662316994022,-12,-16,0,1,-2,-14,-5,-3
1461662316994022,7,-3,-8,1,-2,2,5,10
1461662316994965,7,-10,4,-2,0,2,-4,-10
1461662316994965,-6,-16,-4,3,1,2,4,3
1461662316997027,-9,-9,-6,2,1,0,-4,-2
1461662316997027,-2,-20,-15,-8,-1,4,0,-2
1461662316999969,5,-18,7,-6,-3,-8,3,6
1461662316999969,-6,-7,-1,-2,0,2,0,-6
1461662317000969,-8,-19,-12,-3,-1,1,-3,-6
1461662317000969,7,11,18,4,3,2,-1,6
1461662317009003,1,1,-1,4,1,-1,-3,0
1461662317009003,-7,-10,-10,-2,1,4,-1,-5
1461662317009003,-9,-7,3,-2,-1,1,-2,0
1461662317009003,3,3,3,8,2,-3,-1,-4
1461662317015981,4,4,2,-2,3,2,-2,1
1461662317015981,-1,-2,-17,2,3,3,1,-5
1461662317017982,-3,1,-4,-9,-3,-5,-4,-2
1461662317017982,-1,0,23,6,-4,1,-3,-3
1461662317022985,5,3,10,0,-1,3,-1,3
1461662317022985,-9,-26,-25,-5,-4,-1,1,0
1461662317023986,-2,-5,-5,0,-2,-5,-3,-2
1461662317023986,1,-4,-9,-5,-5,4,-1,-2
1461662317029989,1,-4,2,2,2,0,2,2
1461662317029989,-2,-7,-3,0,-2,-7,-4,-4
1461662317030990,-6,-9,7,0,-1,2,2,-2
1461662317030990,4,3,3,-3,0,4,0,-1
1461662317038996,1,-5,-7,-1,1,0,0,1
1461662317038996,-2,-3,-5,-1,1,3,-1,-3
1461662317039996,-1,-3,2,0,-2,0,-1,-3
1461662317039996,5,-2,-1,-2,-1,-6,-1,-1
1461662317045035,0,1,-9,-3,0,-2,-2,-1
1461662317045035,-4,6,5,-1,-2,-2,-3,-2
1461662317046018,-2,-1,-8,-4,1,2,-2,1
1461662317046018,-1,-5,7,-6,-7,-6,-4,-1
1461662317068031,1,-6,-15,15,7,2,1,1
1461662317068031,-1,-1,-2,1,-4,-5,0,-1
1461662317069018,-3,-1,5,-5,-3,1,-3,-2
1461662317069018,-1,0,-12,-3,0,1,0,0
1461662317082050,-2,8,7,-5,-6,-4,0,-1
1461662317082050,-4,1,2,2,-1,-7,0,-1
1461662317090055,-2,-3,-6,-2,-2,8,1,0
1461662317090055,-1,-2,1,0,0,-1,-1,1
1461662317105054,-1,-4,2,-2,-2,1,-1,-1
1461662317105054,-1,5,5,3,-1,2,0,-1
1461662317106056,-4,-3,3,0,-1,-8,-3,-3
1461662317106056,-1,-7,-6,2,-1,-2,-1,0
1461662317120115,-2,-4,-6,-1,1,-2,-2,-2
1461662317120115,-2,2,10,-3,-3,-5,-4,-1
1461662317127115,-1,-1,4,0,0,-3,2,-1
1461662317127115,2,2,1,-2,1,0,2,-1
1461662317142073,3,-1,-11,-15,-8,-5,-2,-1
1461662317142073,-3,-3,-4,6,5,1,-2,-2
1461662317150073,-2,4,9,16,6,5,1,0
1461662317150073,-1,-4,-1,3,2,-4,-1,-2
1461662317165086,3,1,4,0,-3,-2,0,-1
1461662317165086,2,-5,-17,-11,-4,2,1,1
1461662317166088,-2,6,5,6,-3,-4,-1,-1
1461662317166088,-2,-4,-2,-4,0,-1,-2,-1
1461662317180095,1,-1,0,-2,1,-2,1,-1
1461662317180095,-2,-6,-3,-6,-4,-1,-3,-3
1461662317187101,3,-3,-4,-5,-2,-3,0,-2
1461662317187101,3,8,-9,-3,-1,0,0,1
1461662317202110,-3,-5,1,-3,-3,-2,0,0
1461662317202110,-1,1,2,-1,0,2,1,1
1461662317211116,-4,-4,-2,-1,1,-2,-2,-2
1461662317211116,1,1,-1,-4,-3,-8,-5,-2
1461662317225185,0,-2,-2,0,2,7,3,0
1461662317225185,-1,-2,1,-1,-2,1,-1,-2
1461662317226136,0,-2,3,-6,-1,0,-2,-1
1461662317226136,-1,-1,2,5,7,0,0,-1
1461662317240154,-4,-5,-7,-4,-3,-2,-4,-2
1461662317240154,-3,-5,0,2,-1,-4,0,0
1461662317247201,-1,-3,-2,-2,-1,-2,0,-1
1461662317247201,-2,7,5,-6,-3,-2,-1,-2
1461662317278221,5,5,8,7,-3,-5,-3,-1
1461662317278221,1,-4,-5,-5,0,3,-2,-2
1461662317279166,0,-5,-5,1,-1,-3,0,0
1461662317279166,0,-3,-5,1,2,2,0,0
1461662317285240,4,-2,-2,-5,-2,-2,-3,-1
1461662317285240,-1,4,6,2,-3,-3,-3,0
1461662317286196,-3,1,-4,-4,-2,-2,0,0
1461662317286196,0,-2,-2,-2,-2,-3,-1,-1
1461662317300180,-2,0,2,0,1,1,3,-1
1461662317300180,-2,-4,-2,-1,-2,-3,-3,-2
1461662317307211,-1,-1,-6,-3,-1,-1,-2,-1
1461662317307211,0,0,1,-2,-3,1,0,0
1461662317322221,-3,0,-1,-6,-5,-3,-2,-3
1461662317322221,-3,-3,-2,2,3,-1,-1,-2
1461662317330227,-4,-3,-1,3,1,-2,-2,-1
1461662317330227,0,1,-1,-3,-4,2,-2,-2
1461662317345228,-8,-6,-5,-1,3,-2,-3,-3
1461662317345228,-1,3,2,-6,-3,-1,1,-1
1461662317346230,-2,0,0,2,-1,-2,0,-1
1461662317346230,0,0,3,0,0,-1,1,1
1461662317359236,2,1,-2,-4,-3,-1,-2,0
1461662317359236,0,2,-4,-5,-1,0,-1,1
1461662317375292,-3,4,-3,-12,-4,-1,-3,-2
1461662317375292,-3,-10,3,1,-1,-1,-1,-2
1461662317382280,1,2,7,2,1,0,-1,1
1461662317382280,0,-2,-4,4,2,-1,-1,-2
1461662317390301,2,-1,-3,2,-1,1,1,2
1461662317390301,0,0,-3,-5,-2,-3,0,1
1461662317405266,0,-2,-3,-2,-2,-3,-2,-2
1461662317405266,-1,3,2,4,0,-1,-1,1
1461662317406266,-2,0,2,-1,2,0,-3,-2
1461662317406266,-1,0,-2,5,0,-1,0,-1
1461662317419264,0,-1,1,1,-1,-1,0,0
1461662317419264,-2,1,1,-4,1,-2,-1,-1
1461662317427283,-2,-3,0,-1,-3,-2,-1,-2
1461662317427283,0,-4,-1,-1,-2,-2,-1,-1
1461662317442281,3,0,0,3,0,0,2,0
1461662317442281,1,0,-3,-4,-3,-1,-2,-1
1461662317450310,2,-6,-2,6,1,1,-1,0
1461662317450310,-7,1,1,1,1,0,0,2
1461662317465321,-1,0,-4,-2,-4,-2,-2,1
1461662317465321,-3,-1,4,-5,-3,1,-2,-1
1461662317466303,-1,-2,1,16,10,2,1,1
1461662317466303,2,6,1,1,0,1,0,-1
1461662317479310,0,-7,-6,0,-2,0,-1,-3
1461662317479310,-1,-5,-5,-5,-3,-1,-1,-1
1461662317487317,-3,1,-1,-9,-7,-6,-3,-4
1461662317487317,-3,-2,-3,-6,-6,-1,-3,-2
1461662317502326,-1,-1,1,-3,2,-1,-1,1
1461662317502326,-1,-2,0,3,1,2,0,-2
1461662317510331,0,-3,-3,-6,-4,-2,-1,-2
1461662317510331,1,-1,-3,-1,-2,-2,-1,-2
1461662317525338,1,0,-1,-3,1,-3,-2,0
1461662317525338,-1,0,-1,2,-2,-4,-2,-1
1461662317526339,-1,5,-3,-2,-3,-1,0,1
1461662317526339,1,-5,-7,-2,0,0,-1,-1
1461662317547370,-1,-4,-1,-1,0,0,0,0
1461662317547370,-3,-3,4,3,1,-1,0,-2
1461662317548355,-2,-2,0,-4,0,1,1,-2
1461662317548355,0,-2,-3,-1,2,0,1,-1
1461662317571373,-2,-1,-2,-2,-5,-2,0,-4
1461662317571373,0,-1,-3,-1,1,0,-2,-1
1461662317571373,0,0,2,2,-1,-1,-3,0
1461662317571373,-3,-1,0,-1,0,-2,-1,-1
1461662317585380,0,-1,-5,-8,-1,-1,-1,-1
1461662317585380,0,-1,5,5,-3,-2,-1,-1
1461662317586381,0,2,0,2,0,1,1,1
1461662317586381,0,2,2,1,2,0,-2,-2
1461662317599390,-3,0,-3,3,0,-1,-2,-3
1461662317599390,0,-2,-3,-9,-3,-2,-2,-2
1461662317607410,-1,-1,0,-1,-2,0,-1,-1
1461662317607410,0,-1,2,1,-3,-1,-1,1
1461662317622446,1,1,-4,1,-1,2,0,1
1461662317622446,-2,-1,-2,-2,-1,0,0,0
1461662317630452,-2,-4,-6,-7,0,-3,-1,-1
1461662317630452,-1,-2,0,-1,-2,0,-1,-1
1461662317645424,1,3,2,5,1,1,-3,-1
1461662317645424,-2,-2,-4,-3,-2,-2,-3,-2
1461662317646435,-2,-3,-2,-2,-1,-2,-2,-2
1461662317646435,0,1,-2,-5,-2,-3,-1,-1
1461662317659491,1,-3,0,4,1,-2,0,0
1461662317659491,0,0,2,8,0,-2,-1,-2
1461662317667451,-1,-1,-2,-9,-2,-1,1,-2
1461662317667451,0,-1,-8,-14,-6,-1,-1,0
1461662317682459,0,-2,2,13,1,-1,0,0
1461662317682459,0,2,0,4,4,1,1,-2
1461662317690514,-2,1,0,5,1,0,-1,-1
1461662317690514,-1,3,-3,-3,-4,-1,0,0
1461662317713531,0,2,-3,-12,-4,-1,-1,-2
1461662317713531,-2,0,-3,-2,-4,-1,-2,-2
1461662317714473,0,0,0,-2,-2,2,1,0
1461662317714473,-1,-5,0,2,3,1,0,-2
1461662317719488,-2,-3,0,-3,-4,-1,-3,0
1461662317719488,-2,-5,-4,-3,-2,1,-3,0
1461662317727540,-3,1,0,5,4,2,0,1
1461662317727540,-3,-3,-2,0,0,-2,1,2
1461662317742520,-1,-4,2,2,2,-3,-1,-5
1461662317742520,2,-2,-3,-8,-4,-2,0,0
1461662317750511,-1,0,2,4,3,2,-2,0
1461662317750511,1,-2,-2,1,-3,-2,-3,-2
1461662317765540,-2,1,-1,1,-1,0,-1,0
1461662317765540,0,-1,-1,-5,-2,-3,0,0
1461662317772519,-2,-5,-3,-3,-3,-3,-1,-1
1461662317772519,-1,-3,-3,-3,-3,-1,-1,-1
1461662317779524,-2,0,1,2,2,-1,0,1
1461662317779524,2,1,-2,-1,0,-1,-1,0
1461662317787532,-1,-1,-2,-5,-4,-2,-3,-2
1461662317787532,0,0,1,10,5,2,-1,0
1461662317802538,-3,-3,-5,-6,-4,0,-1,-3
1461662317802538,-2,-2,-3,-5,-3,-1,-1,-1
1461662317810542,0,-2,-4,-2,-1,-2,0,0
1461662317810542,-2,-2,2,1,-2,-1,-3,1
1461662317825551,-1,-1,-3,0,1,0,-1,1
1461662317825551,-2,0,2,3,1,-2,-2,0
1461662317826552,-2,-4,-1,0,1,-1,-1,-2
1461662317826552,1,0,-3,0,0,1,-1,1
1461662317839561,2,2,2,-2,0,-1,-1,-1
1461662317839561,-2,-2,-5,-3,-3,-1,-3,-2
1461662317847566,3,-1,-3,-3,-1,-4,-1,-2
1461662317847566,0,1,3,0,0,-1,0,-3
1461662317862590,0,-2,-3,-4,-4,-2,-1,0
1461662317862590,-3,-1,0,0,-1,-1,1,-2
1461662317870582,-1,-1,1,2,0,0,-1,-3
1461662317870582,-3,-2,-4,-4,-2,0,-1,0
1461662317885609,-2,-4,-6,-6,-2,1,-3,-1
1461662317885609,0,4,1,-1,-2,-3,-3,-2
1461662317886594,0,3,4,7,4,1,1,2
1461662317886594,-1,0,-1,-2,-1,-3,-3,-1
1461662317899638,-2,1,2,-6,-4,-1,-1,-2
1461662317899638,-3,-7,-6,-1,0,0,-1,0
1461662317907647,0,2,2,-5,-7,-2,-1,0
1461662317907647,0,-2,-1,3,5,3,2,-1
1461662317922656,0,-4,-5,1,-1,-1,1,-1
1461662317922656,-3,-4,0,-3,0,-1,1,-3
1461662317930722,3,4,1,0,-2,-1,-2,-1
1461662317930722,1,3,2,-2,-3,-2,-3,-1
1461662317953696,-6,-7,-3,-3,-1,-2,-1,0
1461662317953696,0,2,-2,-2,-1,-1,-1,-1
1461662317954696,-4,-2,-7,-5,-4,-3,0,-3
1461662317954696,-4,-2,3,7,1,0,0,0
1461662317959699,-1,-2,-1,-3,-3,-2,-2,-1
1461662317959699,0,-2,-1,-2,5,3,0,0
1461662317967688,0,1,-1,-2,-1,2,-1,0
1461662317967688,2,0,-2,-3,-2,-1,-1,-3
1461662317983697,-1,0,2,2,0,-2,-1,-3
1461662317983697,-1,-2,1,-5,-6,-4,-2,-2
1461662317997728,2,1,2,5,1,-1,-4,1
1461662317997728,1,-1,-2,-3,3,-1,-2,-1
1461662318004711,-3,-5,-3,3,-1,1,-1,-2
1461662318004711,1,1,-2,-2,-1,-2,0,-2
1461662318012757,-7,-6,0,2,0,-1,0,-2
1461662318012757,0,4,3,-1,-3,-1,0,1
1461662318019762,-1,-5,-4,1,1,0,1,-2
1461662318019762,-2,3,4,7,-2,0,1,-2
1461662318026766,-2,0,0,-8,-3,0,-2,0
1461662318026766,-2,-3,-3,5,2,2,-1,0
1461662318041777,2,6,0,-3,-1,0,-1,0
1461662318041777,-3,-5,-3,0,-4,0,-3,-5
1461662318050744,1,0,-2,2,1,-1,-2,0
1461662318050744,0,-3,-2,-6,-5,-1,-2,1
1461662318064817,1,-1,-1,1,-1,1,-2,-1
1461662318064817,-1,1,-1,-1,-2,-1,-1,-2
1461662318072760,-2,-2,-3,-1,-1,-1,0,-1
1461662318072760,-1,0,-2,-5,-2,0,-1,-3
1461662318087771,-2,3,2,-2,-2,0,-1,-1
1461662318087771,0,-3,-5,-2,0,-1,-2,-1
1461662318088772,-6,-5,1,5,1,0,2,-2
1461662318088772,-2,-3,-2,-3,-4,-5,2,0
1461662318101780,0,1,3,7,2,-1,1,2
1461662318101780,2,-1,-2,0,0,-2,0,1
1461662318110844,-1,-4,-6,-3,-6,-1,-1,-1
1461662318110844,-1,-1,-3,1,1,0,0,0
1461662318124799,-1,6,1,-2,-1,-2,-1,1
1461662318124799,0,-2,-2,-2,-1,0,1,0
1461662318132817,1,-2,0,-3,-4,-4,1,0
1461662318132817,-4,-2,1,0,-2,-1,0,-2
1461662318147871,1,0,-2,-7,-3,0,3,0
1461662318147871,0,-1,0,-3,-1,1,2,1
1461662318148815,0,1,-1,-7,-1,0,-5,-3
1461662318148815,1,-4,1,5,5,0,-4,-1
1461662318161881,0,-1,-3,-2,-2,2,-3,0
1461662318161881,-1,-1,-2,0,0,0,-3,1
1461662318170828,0,1,-4,-3,-2,1,-2,-2
1461662318170828,-3,-2,-2,-5,-1,-3,2,-2
1461662318184845,0,-3,3,1,0,-5,-3,-3
1461662318184845,-1,-3,-1,-2,-1,-3,1,-2
1461662318192906,-2,0,-5,-13,-2,-5,-1,-2
1461662318192906,-1,1,0,-1,0,-2,-1,0
1461662318207884,1,1,0,-3,0,-2,-1,1
1461662318207884,-1,-3,2,0,-2,-2,-4,1
1461662318208858,-1,-5,1,3,4,-2,-2,-2
1461662318208858,1,1,-8,-13,-5,-1,2,-1
1461662318221894,-3,-7,-4,-5,-2,-4,2,-3
1461662318221894,0,-4,-1,16,7,2,0,-2
1461662318230873,0,0,-2,-2,-3,-1,-1,-1
1461662318230873,-1,1,4,5,0,-1,-1,1
1461662318244900,-1,3,-2,6,2,-1,-2,-1
1461662318244900,-2,0,1,-6,-2,-5,-3,-1
1461662318252905,0,-3,2,-1,-1,1,-2,1
1461662318252905,-1,-9,-7,-2,-3,-4,-3,-1
1461662318267900,2,4,-3,-7,-6,-1,0,-2
1461662318267900,0,-2,-5,-8,-7,-6,1,-4
1461662318268902,-1,4,5,9,0,-3,3,-1
1461662318268902,-2,-4,1,-7,-3,-3,3,0
1461662318281913,0,0,2,10,6,0,0,0
1461662318281913,-2,-7,-1,-2,-2,-2,-3,-1
1461662318290915,-1,-3,-3,1,0,-1,-2,-1
1461662318290915,-4,0,5,-3,-2,-1,-1,-2
1461662318304925,-2,0,1,1,-2,-2,1,0
1461662318304925,5,16,0,2,3,-1,-2,1
1461662318312958,-7,-20,-8,-5,-4,-3,-2,-1
1461662318312958,1,-6,0,5,-3,-2,-2,0
1461662318327969,-2,-4,-1,-9,-3,-1,-2,-2
1461662318327969,0,3,0,-4,-4,-1,-4,-3
1461662318328943,1,8,-1,-8,-4,-2,-2,-2
1461662318328943,1,3,-2,-2,3,1,0,0
1461662318341965,-3,-5,-4,3,-3,-1,-3,1
1461662318341965,-3,-3,-3,-5,-4,0,-1,-1
1461662318349956,-1,5,1,3,-1,0,0,-3
1461662318349956,-2,2,-2,-1,-3,3,-3,-2
1461662318365026,0,2,-1,-4,-5,2,-1,-2
1461662318365026,-7,-3,2,3,1,4,2,0
1461662318372989,-4,-4,-2,-5,-2,2,-1,1
1461662318372989,-1,-3,-2,2,1,2,-4,-2
1461662318388000,-4,-2,4,5,5,0,-4,-2
1461662318388000,-1,-1,0,-2,0,6,-1,-1
1461662318395995,-3,-2,-3,-6,-3,5,-2,-2
1461662318395995,0,2,-2,5,1,0,-2,0
1461662318401993,0,-6,-5,-2,-2,-3,-2,-1
1461662318401993,-2,-2,-1,-5,-2,-5,2,-3
1461662318410027,-4,3,3,3,5,0,2,-2
1461662318410027,-1,0,-6,-1,-1,-1,4,4
1461662318425028,0,0,-3,-6,-1,0,-3,-4
1461662318425028,1,4,3,4,-2,-2,-4,-4
1461662318433015,1,-2,-1,-3,-2,-4,-7,7
1461662318433015,-3,0,0,1,1,0,-1,3
1461662318448088,1,-2,-2,-3,-1,3,4,9
1461662318448088,3,-6,-5,-5,0,-2,-6,2
1461662318449052,-1,0,0,2,4,-4,-2,-9
1461662318449052,2,-1,2,-3,1,-3,2,0
1461662318462055,-1,-7,-4,-5,0,-7,0,-3
1461662318462055,-1,-4,-2,3,1,-6,-3,-4
1461662318470060,-2,-3,1,2,-1,-2,-1,1
1461662318470060,0,1,-2,-2,-1,-5,-2,-4
1461662318485078,0,6,-2,-5,-3,0,1,-5
1461662318485078,-2,-8,-1,-2,0,3,-1,-2
1461662318493097,7,4,0,3,1,0,2,0
1461662318493097,0,-2,-1,0,-3,2,-3,-5
1461662318508105,-4,-8,1,-2,1,1,-2,-3
1461662318508105,-1,-5,2,3,2,1,3,2
1461662318509068,0,8,-2,-2,-3,-3,0,-2
1461662318509068,-3,-7,2,4,0,-2,-2,-2
1461662318522078,3,6,-1,2,-1,-2,0,1
1461662318522078,-3,-2,0,-2,-1,-3,-1,0
1461662318530119,2,2,1,-2,-3,-2,1,-1
1461662318530119,-3,-6,0,-6,-1,-2,-1,-1
1461662318545096,1,0,-3,0,-5,-6,-4,-5
1461662318545096,1,-2,2,17,11,1,3,3
1461662318553129,-1,4,-1,1,1,-1,-1,4
1461662318553129,0,-1,-4,-1,-4,-2,-2,0
1461662318568117,-4,-7,-4,-2,-3,-4,-4,0
1461662318568117,-1,7,-2,-13,-11,-4,-1,-2
1461662318569111,-3,-6,-5,-7,-6,0,-2,-2
1461662318569111,0,1,1,13,5,4,-1,-1
1461662318582140,0,-1,-1,-8,-4,-2,-1,-2
1461662318582140,5,-1,1,12,6,-3,0,-1
1461662318590138,-2,2,1,-2,0,-1,1,1
1461662318590138,4,6,-3,-14,-2,1,0,1
1461662318605136,-3,-4,-2,-3,-6,0,-1,-4
1461662318605136,-2,1,2,5,1,-1,2,-1
1461662318613183,-5,-9,-4,11,-2,0,0,-3
1461662318613183,-9,4,-3,-1,3,-3,-4,-2
1461662318628192,4,3,-2,-12,-4,-4,-2,-1
1461662318628192,-1,-2,-6,-9,0,-4,-3,-1
1461662318628192,4,6,9,5,3,-3,2,3
1461662318628192,3,5,1,-9,-6,-3,-6,0
1461662318642169,-5,-2,-1,5,2,4,11,0
1461662318642169,-5,-2,3,11,6,4,-1,-2
1461662318650168,-2,-12,-5,-6,-2,-1,-4,-4
1461662318650168,4,-5,-3,-7,0,-2,1,-1
1461662318665186,-7,-5,-8,3,2,-5,-9,-2
1461662318665186,3,3,0,-1,0,0,-3,0
1461662318673190,0,11,10,2,5,1,2,-2
1461662318673190,-4,-11,-13,-11,-4,-2,-2,-5
1461662318688224,2,4,6,12,4,2,1,-2
1461662318688224,-7,-6,-7,-9,-8,-2,1,-1
1461662318689203,-4,-12,-5,-6,-1,-1,-1,-1
1461662318689203,-3,18,8,-5,-5,-3,3,0
1461662318702220,2,-7,-7,-7,-1,1,1,1
1461662318702220,3,4,5,7,-2,2,0,0
1461662318709225,0,5,0,-17,-11,-3,-2,1
1461662318709225,-4,-16,-7,15,4,5,15,-2
1461662318724233,6,4,5,6,10,3,-10,1
1461662318724233,3,5,1,-14,-7,-10,-2,-1
1461662318740272,2,6,-13,-1,-1,-1,1,2
1461662318740272,-5,4,-3,-16,-8,1,4,-4
1461662318748274,1,-8,-3,16,-1,-5,-11,3
1461662318748274,4,-8,-4,-15,0,-2,-3,1
1461662318748274,-7,4,1,-19,-7,-4,-9,-7
1461662318748274,5,-5,12,58,20,3,-1,1
1461662318770282,-5,6,9,-13,-10,-2,2,-1
1461662318770282,-2,-5,18,26,10,6,4,-5
1461662318771255,-4,1,-5,6,5,4,2,-2
1461662318771255,6,2,2,6,6,7,3,2
1461662318784265,-8,-11,-10,-16,-3,2,2,-6
1461662318784265,3,9,-12,-2,0,-4,-8,3
1461662318793285,-7,-4,9,14,-1,-4,-2,-7
1461662318793285,-8,-14,-4,-4,-4,-2,10,-8
1461662318808279,15,-3,3,-8,-3,9,23,20
1461662318808279,5,-8,-13,-29,-11,-5,-20,1
1461662318809296,-7,31,27,25,-2,-9,-11,-7
1461662318809296,-19,-58,-26,-24,0,6,-5,-1
1461662318823303,-10,-5,-1,31,-5,-17,-35,-14
1461662318823303,-1,-20,-14,-22,-8,-13,-24,-3
1461662318829296,8,10,-9,17,11,7,3,3
1461662318829296,-7,-20,9,-17,-15,-4,7,-1
1461662318844304,6,16,17,20,28,15,24,-1
1461662318844304,-3,2,-2,-7,-14,-7,-2,-5
1461662318853324,9,-31,-14,-4,11,4,9,9
1461662318853324,-20,11,-16,-91,-58,-15,-1,-2
1461662318867339,17,-16,3,80,48,24,30,11
1461662318867339,-23,-16,5,18,9,15,13,-10
1461662318875339,9,26,1,-9,2,5,-36,-10
1461662318875339,12,-16,-17,1,-5,-20,-33,0
1461662318882371,-4,2,-20,-58,-42,-30,-12,2
1461662318882371,-2,4,1,-1,-2,12,40,-6
1461662318889396,7,9,5,-22,-4,9,12,9
1461662318889396,7,-10,28,33,16,-6,-32,14
1461662318904367,-12,-5,-17,-17,-15,-21,-18,-14
1461662318904367,6,9,-3,-28,-7,3,13,13
1461662318913356,-6,-31,14,69,33,9,-10,-3
1461662318913356,-4,31,6,13,0,-8,-3,-2
1461662318927384,-29,-41,-42,-76,-16,2,21,-15
1461662318927384,-1,23,11,-18,-2,6,-15,-8
1461662318935407,12,-28,15,-24,-34,-7,30,11
1461662318935407,12,49,29,117,72,9,-35,6
1461662318942439,-2,-3,-22,-1,-5,-9,-1,-6
1461662318942439,31,31,-4,-8,6,18,23,8
1461662318949381,-36,-10,4,22,11,1,-1,-11
1461662318949381,22,16,-10,-22,-16,4,19,5
1461662318964409,-11,-70,-4,-23,-11,-4,-1,7
1461662318964409,-4,-17,-18,-16,-9,-12,-44,-6
1461662318973398,-7,-11,0,-21,-4,25,98,14
1461662318973398,7,-11,3,-31,-8,1,-62,-3
1461662318987426,-11,-1,-11,-2,-11,-47,-106,-36
1461662318987426,-18,-5,4,2,-15,-28,-18,1
1461662318995425,16,8,-19,6,-4,-11,14,6
1461662318995425,-21,-9,-14,-6,1,15,46,11
1461662319010461,18,21,57,-25,-7,10,-5,6
1461662319010461,5,6,-26,21,23,11,10,-10
1461662319017467,-19,19,-12,-65,-33,-1,9,-21
1461662319017467,0,-49,13,78,60,33,32,-2
1461662319024472,-28,21,11,-1,-4,-14,24,-18
1461662319024472,0,-12,25,-47,-17,-9,-34,-4
1461662319032477,-6,-39,-48,15,28,12,25,-9
1461662319032477,19,18,17,-103,-42,30,48,5
1461662319047489,11,-29,-19,92,35,-12,-72,11
1461662319047489,2,6,-9,1,-24,-48,-70,3
1461662319055474,-5,-6,-16,-6,-12,-20,-8,9
1461662319055474,-21,2,5,5,1,0,-19,-1
1461662319070485,28,50,18,-15,4,41,63,-19
1461662319070485,-11,29,-22,-28,-21,-18,-28,-8
1461662319071485,-7,31,13,-52,-23,-25,-54,-4
1461662319071485,-9,58,26,75,4,-7,31,7
1461662319084488,12,127,9,14,21,25,34,28
1461662319084488,15,69,-32,3,8,4,38,10
1461662319092629,-13,14,0,-86,-62,-13,-32,-24
1461662319092629,-26,-13,-32,33,24,16,90,-8
1461662319107639,25,74,21,54,26,12,-30,27
1461662319107639,20,-38,5,-27,-11,-22,-43,3
1461662319115645,-19,46,-13,29,22,2,-23,-8
1461662319115645,6,-17,1,-114,-79,-28,4,-15
1461662319130598,21,-11,30,63,47,31,26,-4
1461662319130598,-11,-53,30,85,50,21,16,16
1461662319131627,5,50,4,-15,-14,-13,22,35
1461662319131627,-17,-52,-43,-18,12,9,-53,-32
1461662319144669,11,92,12,-46,-43,-48,-30,2
1461662319144669,-4,-14,15,-67,-33,10,34,-6
1461662319152643,9,15,-22,127,73,23,-44,-11
1461662319152643,-18,22,1,-3,-7,-31,1,8
1461662319167654,-4,-82,-7,-105,-50,5,21,-6
1461662319167654,9,-66,9,26,33,42,38,-13
1461662319175630,7,-34,32,96,12,-21,5,20
1461662319175630,-13,0,4,13,-6,-13,-51,2
1461662319190658,-2,-18,-27,-19,14,7,-13,-2
1461662319190658,16,87,23,-27,-28,-1,14,13
1461662319191643,-38,-74,11,14,3,-13,10,-33
1461662319191643,17,-79,-46,-100,-22,-2,-26,7
1461662319213695,8,-70,-22,92,14,-18,-20,-12
1461662319213695,-12,-73,21,45,22,20,33,5
1461662319214671,-3,-68,-18,-61,1,28,22,-11
1461662319214671,18,35,73,32,-17,-45,-45,9
1461662319227666,9,-40,-27,-41,-5,9,9,10
1461662319227666,-16,14,-26,32,12,1,-11,-13
1461662319235711,-2,-9,-14,-58,-29,-19,-47,-6
1461662319235711,-1,13,25,16,11,2,1,-3
1461662319265755,-6,-59,-21,-72,-22,30,73,9
1461662319265755,-8,24,8,42,-7,-30,-20,-13
1461662319267694,13,57,8,47,27,7,11,11
1461662319267694,-20,56,-39,-44,-5,31,20,-10
1461662319288720,30,-67,18,22,8,-31,-61,20
1461662319288720,56,32,0,-48,2,2,62,40
1461662319289712,-21,33,25,-35,-11,36,-26,-39
1461662319289712,-59,53,-5,70,11,-29,-44,-37
1461662319310750,15,-52,-60,-39,-30,-17,9,42
1461662319310750,26,-24,3,19,25,5,-15,12
1461662319312753,21,35,43,12,12,-8,-5,13
1461662319312753,-43,39,-46,-32,22,38,70,-3
1461662319340746,-21,-53,63,-17,-38,-4,-11,-29
1461662319340746,47,-23,8,26,5,-10,-2,-1
1461662319342748,-34,40,-43,-69,-27,1,2,-12
1461662319342748,-14,34,3,81,24,-1,-11,-10
1461662319363801,30,-59,18,-8,-3,8,44,17
1461662319363801,12,-4,18,-42,-9,8,-9,-9
1461662319364799,-5,29,3,29,27,13,37,10
1461662319364799,-53,15,1,-40,-33,-20,5,-4
1461662319385803,12,-34,-5,-3,14,32,46,13
1461662319385803,27,6,-7,4,0,-22,-80,-22
1461662319391823,-8,27,3,-1,-19,-48,-16,25
1461662319391823,2,7,7,-12,0,11,2,5
1461662319407818,-3,-29,-4,26,3,-23,-10,-6
1461662319407818,12,-8,-19,-79,-49,8,10,-4
1461662319416803,-47,-4,-11,-41,-13,-6,-18,-17
1461662319416803,7,2,63,45,41,14,5,16
1461662319438844,-4,-15,-36,92,94,44,21,-1
1461662319438844,-7,0,17,41,4,0,13,-12
1461662319439824,-21,13,-40,-25,-14,-10,2,-11
1461662319439824,11,14,4,-10,-3,6,5,-4
1461662319459830,31,-22,-21,-111,-78,-18,-25,-3
1461662319459830,1,-1,15,56,29,5,18,9
1461662319468837,-30,4,-64,19,20,51,93,-5
1461662319468837,-5,7,-3,-17,-15,-20,-52,-13
1461662319475900,-13,-12,8,-19,-16,-44,-110,19
1461662319475900,31,12,-4,-14,-15,-14,15,1
1461662319476843,-14,9,36,-6,-15,-25,-78,-14
1461662319476843,3,7,-13,-15,-9,-24,-11,1
1461662319477844,-1,-17,3,-58,-34,3,84,18
1461662319477844,-5,3,-9,65,43,26,1,14
1461662319483848,-19,10,33,-20,-5,6,-19,-26
1461662319483848,15,7,-21,-31,0,3,17,-5
1461662319490871,16,-9,33,103,64,15,-12,-19
1461662319490871,-35,11,1,14,6,18,31,-10
1461662319490871,4,4,-33,-10,6,-5,10,-6
1461662319490871,7,-9,-17,-17,-16,-7,-12,6
1461662319498917,-8,-11,22,-29,-19,3,8,-13
1461662319498917,6,-6,6,-8,0,12,6,-5
1461662319499859,18,-5,-7,-7,-28,-13,0,25
1461662319499859,-19,-10,-8,20,4,6,2,6
1461662319504861,36,-4,-35,-24,-20,-40,-40,-1
1461662319504861,-8,5,1,-25,-24,-41,-54,5
1461662319519873,-22,5,17,3,-2,-3,-5,-16
1461662319519873,-8,-11,10,-5,12,25,12,10
1461662319526935,-7,-9,-4,-25,-21,-8,4,-16
1461662319526935,14,1,-43,-40,-6,-16,-26,2
1461662319535900,-1,5,29,4,10,10,5,3
1461662319535900,-5,-5,-6,21,-1,-1,24,-3
1461662319549897,-9,-4,5,62,35,20,23,-5
1461662319549897,17,10,4,22,19,11,11,3
1461662319550895,-4,0,12,-26,-16,-5,-3,2
1461662319550895,-14,-7,-23,-38,-26,-8,-6,-7
1461662319564966,14,-4,9,-70,-21,-3,-10,7
1461662319564966,-43,2,4,34,11,14,29,0
1461662319571910,26,7,-10,-6,4,11,-1,-10
1461662319571910,16,0,14,7,11,14,44,45
1461662319586922,-8,-5,-19,16,-18,-61,-100,-22
1461662319586922,7,9,10,-19,-4,11,-31,-7
1461662319594925,-19,0,13,19,3,-5,20,-6
1461662319594925,-8,-7,-8,-11,-7,23,-2,-6
1461662319609953,-1,-1,-2,23,7,15,38,9
1461662319609953,3,0,-5,-36,-12,-4,14,-5
1461662319610937,-4,-1,-6,-45,-19,-15,-29,-6
1461662319610937,18,-6,16,87,50,5,4,-3
1461662319625005,6,-8,-14,-27,-6,13,26,6
1461662319625005,-20,5,7,33,16,-5,-10,-13
1461662319632010,4,3,-7,7,10,1,-1,6
1461662319632010,-15,-9,2,-26,-13,-16,-10,-4
1461662319647021,15,5,-11,1,-2,10,-3,0
1461662319647021,-6,-4,-1,-23,-25,-20,-9,-12
1461662319654980,1,2,17,14,8,-8,33,17
1461662319654980,27,-8,4,-4,-9,-24,-18,15
1461662319670992,-37,35,-17,-8,-9,5,-2,-9
1461662319670992,12,-55,-23,-19,0,62,10,0
1461662319685992,-9,-128,3,19,4,-50,-59,-14
1461662319685992,3,-56,-2,-12,-22,-43,-26,-9
1461662319687993,4,41,18,19,19,42,40,12
1461662319687993,-1,79,-4,2,-5,15,38,8
1461662319692057,10,77,-8,-17,-17,26,17,7
1461662319692057,-7,72,-1,-84,-44,-30,-20,-9
1461662319707034,11,105,33,60,66,-1,-1,5
1461662319707034,-5,-7,-3,68,49,-6,5,1
1461662319715041,12,-102,5,50,-3,-6,-15,1
1461662319715041,5,-36,9,-32,-27,4,1,-4
1461662319730030,10,2,-5,-54,-10,10,2,-6
1461662319730030,0,-35,-3,-8,6,-26,-19,-1
1461662319731052,-21,-108,-6,24,27,19,15,-4
1461662319731052,-20,-52,0,33,16,-11,-17,-18
1461662319745052,19,13,-8,1,-25,-15,0,-2
1461662319745052,-58,-37,-11,-27,-26,-1,15,-7
1461662319752041,-2,7,-10,-16,-7,19,70,15
1461662319752041,17,-17,-17,6,11,11,-26,-6
1461662319767051,-26,121,3,8,-5,-41,-79,-13
1461662319767051,7,25,-15,-23,-20,49,17,4
1461662319775067,36,36,5,2,-3,-7,8,13
1461662319775067,30,44,-10,-6,-10,5,20,0
1461662319790075,-31,-5,1,-56,-20,-16,20,-6
1461662319790075,-42,-55,32,50,34,-19,-18,-7
1461662319791065,11,-42,24,15,25,14,-12,4
1461662319791065,35,-31,-32,16,28,-9,2,2
1461662319805087,-17,-20,-29,11,-7,0,-4,-13
1461662319805087,-33,-108,-1,-54,-44,-13,1,-7
1461662319812091,27,-128,-22,-22,-3,8,-10,6
1461662319812091,28,-89,4,9,1,-5,-5,6
1461662319829103,-21,14,5,0,-11,16,13,-11
1461662319829103,-22,75,0,-13,-7,-12,-6,-10
1461662319835107,32,35,5,7,5,-28,-28,4
1461662319835107,17,-25,9,-5,-8,-6,9,8
1461662319850108,-30,75,0,15,6,22,8,-7
1461662319850108,-33,56,14,0,-3,22,20,2
1461662319858150,3,103,-7,-2,2,2,-13,-3
1461662319858150,13,-5,-4,-7,1,10,16,0
1461662319873135,-4,48,7,12,4,-6,-5,-2
1461662319873135,5,36,-10,-3,-8,-40,-17,1
1461662319874135,1,27,-4,-21,-11,-6,-13,2
1461662319874135,6,47,11,3,4,12,3,5
1461662319887171,-2,61,-7,-4,0,-15,0,-4
1461662319887171,-2,54,-2,15,7,-3,-6,3
1461662319895198,9,22,8,10,8,8,3,6
1461662319895198,17,62,-2,-1,-2,-1,-2,0
1461662319910209,-21,-62,-2,3,10,10,11,-4
1461662319910209,-7,-123,-16,-14,-12,4,-3,-1
1461662319918192,9,-69,-21,-6,-8,-9,0,2
1461662319918192,9,-13,15,0,-5,-2,-19,-5
1461662319925174,-16,32,19,-5,-7,24,12,-6
1461662319925174,-10,120,-29,-9,1,13,4,2
1461662319940182,21,126,2,4,0,-11,-13,14
1461662319940182,2,127,2,-4,-4,6,9,1
1461662319947192,-16,-95,-1,9,3,-21,2,-7
1461662319947192,-2,-106,13,-1,-1,-7,-1,2
1461662319955192,8,-104,-1,0,-7,4,-5,1
1461662319955192,3,71,-1,3,3,-3,-7,4
1461662319970192,-8,127,-2,4,1,3,-1,-2
1461662319970192,-9,123,13,-11,0,-17,-1,-4
1461662319978254,9,47,19,5,3,3,0,8
1461662319978254,7,-7,1,6,4,7,3,0
1461662319993266,-11,-41,-21,2,-3,-6,-1,-9
1461662319993266,-5,21,1,-20,-11,-4,-4,-2
1461662319993266,4,43,-27,-3,2,4,2,-1
1461662319993266,4,-34,12,3,9,0,3,-1
1461662320007229,-11,20,18,7,-1,0,-5,-7
1461662320007229,-4,0,10,2,-3,-3,-4,2
1461662320015294,1,3,-15,-6,-6,-8,-3,-1
1461662320015294,-1,-78,-10,-1,-3,-4,-7,-6
1461662320038264,-5,-107,-8,-4,-2,6,2,-2
1461662320038264,-4,-60,-18,-4,1,-4,10,0
1461662320039268,3,29,27,6,3,13,12,8
1461662320039268,2,53,10,0,0,-2,-6,-4
1461662320053266,-2,38,-17,-1,1,-2,-4,-5
1461662320053266,-1,33,8,7,3,-5,-6,-3
1461662320053266,0,30,5,1,0,1,0,-4
1461662320053266,1,-7,-15,-7,-3,-5,-3,0
1461662320067259,2,-3,19,1,1,0,3,0
1461662320067259,-3,-25,-3,0,1,-1,-4,-3
1461662320075277,0,-12,8,-1,-3,-1,-6,2
1461662320075277,-1,-42,-24,-4,-2,8,3,-3
1461662320089334,0,-12,21,2,0,-1,-5,-4
1461662320089334,-3,-27,-25,-6,-3,-9,-1,1
1461662320098340,0,-13,3,-1,-1,2,-1,-2
1461662320098340,-2,-37,12,4,1,4,2,-2
1461662320113357,-4,-34,-23,-10,-3,-1,-1,-3
1461662320113357,-3,10,4,-2,-2,0,-4,0
1461662320113357,2,15,10,2,1,0,1,1
1461662320113357,-2,7,-3,1,-1,0,4,0
1461662320127360,-5,27,-13,2,-3,-5,-4,0
1461662320127360,-3,-13,8,-3,-1,5,2,-2
1461662320135368,2,-9,-11,-7,-2,0,-2,0
1461662320135368,5,3,1,3,0,-4,-1,-1
1461662320149383,-7,8,6,-1,0,1,-1,-3
1461662320149383,-2,8,26,5,1,-2,-2,-3
1461662320158341,3,-7,-54,-6,2,-1,3,-1
1461662320158341,2,0,28,0,-1,-4,-3,0
1461662320173334,-7,0,-28,-3,-2,-1,3,-2
1461662320173334,-1,-3,-11,-4,-6,-2,-1,-2
1461662320173334,-1,-14,6,-5,-3,0,-1,-3
1461662320173334,0,-12,-3,1,0,4,4,1
1461662320187405,-1,8,14,4,0,-5,-3,0
1461662320187405,3,-4,-3,2,1,0,-3,1
1461662320195409,6,-8,12,2,-2,2,-2,1
1461662320195409,4,1,-11,-2,-3,-5,-2,-2
1461662320209418,-5,6,14,1,-1,5,-4,-3
1461662320209418,-1,-11,-26,-5,0,-5,0,2
1461662320218366,1,-10,4,1,-1,1,0,-1
1461662320218366,-3,-6,-4,-5,-1,2,-1,-2
1461662320233392,-2,-3,-1,0,-1,-10,-4,1
1461662320233392,-1,0,-4,-2,1,15,5,0
1461662320233392,-1,-6,6,1,-1,-4,-3,-4
1461662320233392,1,-5,3,4,-2,-1,1,-3
1461662320247446,-4,-1,-7,-2,0,-5,-3,-4
1461662320247446,-5,-5,11,2,-2,-4,-3,-2
1461662320255405,3,-7,-13,-3,-2,0,-1,2
1461662320255405,-1,-1,5,-2,-1,-1,-4,1
1461662320269414,-4,1,7,2,-2,-1,-2,0
1461662320269414,-4,-1,-10,-4,-3,-8,-4,0
1461662320278421,0,-3,0,0,1,2,0,-1
1461662320278421,-1,-10,-5,0,0,0,-2,1
1461662320293447,1,3,-2,-5,-2,1,0,-2
1461662320293447,-1,-1,0,3,1,-1,-2,-3
1461662320293447,0,-3,6,0,-1,-3,-2,-1
1461662320293447,1,-5,-9,-4,0,1,0,-2
1461662320307454,0,-3,-3,-2,-1,-2,-2,-1
1461662320307454,-2,-4,-4,-3,-3,-2,-2,-2
1461662320323466,0,-3,-1,0,-2,-1,-2,-1
1461662320323466,-1,0,1,0,0,1,1,-2
1461662320329469,-4,-2,-1,-1,-2,-2,0,1
1461662320329469,-2,1,1,-1,2,-1,0,1
1461662320345515,-1,-6,-3,0,0,-3,1,2
1461662320345515,1,5,1,-1,0,0,2,1
1461662320352463,-4,-1,-4,-1,-3,0,0,0
1461662320352463,3,14,12,-3,-4,-5,-2,-1
1461662320353464,-5,-28,-9,-3,-2,1,-1,-1
1461662320353464,1,5,6,0,-1,-2,-2,-2
1461662320367485,-3,1,4,-2,-1,0,-1,-1
1461662320367485,0,0,2,3,-1,0,1,0
1461662320375507,4,5,-5,1,0,0,-2,1
1461662320375507,0,0,-4,-4,-3,0,-3,-3
1461662320389511,1,-2,-3,-1,-1,-1,-1,-1
1461662320389511,-1,-2,-4,-1,-1,-2,-1,-1
1461662320405514,0,3,7,-2,-2,-5,0,-3
1461662320405514,0,-2,2,0,-2,-2,-1,1
1461662320412519,-1,0,-19,-2,1,-1,-3,0
1461662320412519,-1,-4,-2,0,0,-1,2,-1
1461662320413504,2,7,17,4,-1,1,0,-2
1461662320413504,-1,-4,-7,-2,-2,-1,-2,-2
1461662320427555,-4,-2,7,1,2,3,0,-1
1461662320427555,-2,-8,-9,-3,-1,-2,-2,0
1461662320435559,1,-3,-12,-3,-2,0,-1,-1
1461662320435559,2,1,5,-1,0,1,-1,-1
1461662320449530,-1,0,8,3,1,2,0,0
1461662320449530,-3,-3,-6,-2,-3,-4,-4,-1
1461662320457548,3,5,0,-2,-2,3,0,-1
1461662320457548,-3,0,-2,0,0,-4,-1,-2
1461662320472545,-1,-9,-11,-3,1,-3,-2,-2
1461662320472545,0,-2,-3,-2,1,0,-1,0
1461662320473559,-3,-3,-2,0,1,2,-3,-1
1461662320473559,0,-2,-10,-3,-1,-1,-2,-3
1461662320488557,-1,5,8,0,0,1,0,-2
1461662320488557,-1,13,16,1,-1,-2,2,-4
1461662320495622,-1,-5,-4,-1,-3,-4,0,2
1461662320495622,-1,-6,-4,-1,0,-1,1,1
1461662320509631,5,-1,-4,1,-3,-2,0,-1
1461662320509631,-3,-13,-10,-1,0,0,-4,-1
1461662320517594,-1,5,0,0,-2,0,-1,-3
1461662320517594,-1,-4,2,-5,-2,-3,-2,-1
1461662320532647,-4,-9,-4,-1,-3,-3,0,-2
1461662320532647,-2,2,-1,1,0,-1,-3,0
1461662320533589,-2,2,1,1,1,-3,-2,-2
1461662320533589,-2,-1,-2,0,-2,0,-1,-2
1461662320547661,-4,2,1,-1,1,-1,-1,-4
1461662320547661,2,0,-6,0,1,0,2,0
1461662320555624,-4,-5,20,-5,1,-3,-1,1
1461662320555624,0,1,-12,-1,-4,-1,-2,0
1461662320569628,-1,-1,3,-3,0,2,-1,1
1461662320569628,-1,-9,-6,1,-2,0,1,-1
1461662320577620,3,4,-9,-3,-2,1,-2,-1
1461662320577620,2,-3,0,-3,-2,1,1,-2
1461662320592688,0,6,9,1,-2,-4,-2,0
1461662320592688,-2,-3,6,0,-1,-2,0,-1
1461662320600638,-4,0,-1,1,-1,-5,0,0
1461662320600638,-2,2,1,-2,-2,-3,-2,-2
1461662320607654,1,2,-3,-1,0,2,-3,-1
1461662320607654,-1,3,-7,-5,1,-3,-2,1
1461662320615709,-9,-6,15,2,-1,1,1,-1
1461662320615709,-4,-11,-3,3,0,-2,0,0
1461662320629665,-3,-1,1,0,-4,-3,-2,-3
1461662320629665,2,3,2,-1,-1,2,0,-1
1461662320637671,0,7,-6,-1,1,0,0,-1
1461662320637671,-1,-4,-7,-4,-2,1,-1,-1
1461662320652691,0,-8,6,-2,-2,-1,1,-3
1461662320652691,-4,-2,-5,-2,-3,-2,-1,-2
1461662320653674,4,3,-5,-1,2,0,-2,2
1461662320653674,-1,2,4,-1,1,-1,-3,-2
1461662320667688,0,2,4,0,-1,-3,-3,1
1461662320667688,-1,-2,-9,-3,-1,1,1,1
1461662320675718,-1,-7,-2,-5,-4,-3,0,-1
1461662320675718,2,4,0,0,-1,0,-4,0
1461662320689728,0,-1,-5,-3,-1,0,3,-1
1461662320689728,0,-1,1,0,0,2,0,-2
1461662320697734,1,0,-4,3,0,-2,-1,1
1461662320697734,-1,2,-1,-1,-3,4,2,-2
1461662320712731,0,0,-5,1,0,3,-2,-1
1461662320712731,-1,1,6,2,-2,-4,-3,-1
1461662320713733,-1,1,-3,-1,1,0,0,-1
1461662320713733,-5,-5,-3,0,0,-5,-1,0
1461662320728744,-2,-7,-6,-3,-1,-1,-2,-2
1461662320728744,2,5,-1,-3,-2,2,-1,0
1461662320735790,-2,-7,0,-2,-2,-2,0,-1
1461662320735790,4,3,-7,0,-1,1,1,-1
1461662320749743,-3,6,4,-1,0,0,2,-3
1461662320749743,-3,-5,6,-2,-1,0,-1,-2
1461662320757748,0,1,2,2,-1,-1,0,-1
1461662320757748,-2,-4,1,-1,1,-3,-2,-2
1461662320771769,4,6,-4,-1,-1,-1,1,-1
1461662320771769,-2,-2,-5,-1,0,-1,-1,1
1461662320780776,0,4,0,0,0,1,0,3
1461662320780776,-1,-3,-1,-2,-1,0,-2,-2
1461662320787768,0,-3,2,0,-2,-1,-1,-1
1461662320787768,-4,-8,3,1,-1,-3,-2,-2
1461662320795787,-2,-7,-2,0,-1,0,0,-3
1461662320795787,3,4,-4,-1,-1,-2,-2,1
1461662320809796,-2,-5,-7,-2,-2,-1,-1,2
1461662320809796,-1,0,-3,1,0,-3,-1,1
1461662320817791,0,8,4,-3,1,-1,-2,0
1461662320817791,-2,1,2,0,-1,-5,-2,-2
1461662320831812,0,-2,0,-2,0,-2,-2,-1
1461662320831812,0,0,-5,-2,1,-1,-1,0
1461662320840819,2,-1,-4,-3,-2,-1,0,-1
1461662320840819,-2,-5,-3,1,0,1,1,-2
1461662320846822,-1,2,11,2,-1,-2,0,-1
1461662320846822,-3,0,0,-2,-2,-1,-1,0
1461662320855818,-5,-5,-1,-1,1,1,0,-1
1461662320855818,-2,-3,-10,-4,-1,-2,-3,0
1461662320878872,-1,-2,1,-2,-2,-1,-1,-3
1461662320878872,0,-1,3,0,0,1,0,-2
1461662320879834,-4,0,0,1,0,3,0,0
1461662320879834,1,-2,-1,-2,-2,-1,-1,0
1461662320891883,-2,-5,-2,-2,-1,-1,-4,-2
1461662320891883,-3,1,2,-1,-3,0,1,-4
1461662320900850,0,1,-2,-1,-2,-1,-1,0
1461662320900850,-2,-3,-5,-2,-1,0,-1,-1
1461662320906854,-2,-3,-10,-2,-1,2,0,-1
1461662320906854,-1,-4,1,-1,-1,-1,-1,-1
1461662320915859,2,1,-1,-2,-1,-1,-2,0
1461662320915859,1,1,3,-1,0,-3,-2,0
1461662320929870,0,0,-3,-1,0,-1,-2,0
1461662320929870,-2,-2,5,0,0,-1,-1,-1
1461662320938876,5,2,-1,1,-1,-2,-3,0
1461662320938876,0,-3,-1,-3,-2,-3,0,-3
1461662320951898,1,5,-7,-1,-2,-2,0,-1
1461662320951898,1,5,-2,-5,-1,0,0,-2
1461662320960891,-3,-12,9,4,1,-1,0,-2
1461662320960891,-2,-3,8,2,3,2,-2,-2
1461662320975963,-9,-6,-5,-1,1,-1,0,0
1461662320975963,0,1,-9,-1,-2,-2,1,1
1461662320977952,1,0,-8,-5,-4,-1,-1,-2
1461662320977952,-3,-1,5,-2,-3,-3,0,-1
1461662320990018,0,3,2,1,-1,1,0,-2
1461662320990018,-1,1,2,-2,-1,-2,0,1
1461662320998982,-1,-9,-4,-2,-1,0,2,0
1461662320998982,-3,-2,-6,-1,-1,1,0,0
1461662321012035,0,-2,0,-2,-1,-1,-2,2
1461662321012035,0,1,5,0,0,3,-1,0
1461662321020981,1,-1,-6,-4,-1,0,-2,0
1461662321020981,0,-3,2,2,0,0,2,-2
1461662321044057,-3,-1,-4,2,0,-2,-2,-2
1461662321044057,-2,-3,0,0,-1,-3,-3,-1
1461662321044999,-1,4,7,1,-1,0,-2,-2
1461662321044999,2,0,-12,-5,-2,-3,-2,-1
1461662321050017,-4,4,2,0,0,-3,-2,-2
1461662321050017,1,-5,1,-5,-1,-3,-1,-1
1461662321059023,-5,-20,-8,11,4,-3,0,-1
1461662321059023,1,6,8,0,0,-1,-3,-1
1461662321072032,-5,-7,-6,-1,-1,2,0,-2
1461662321072032,-3,5,3,-2,-3,-1,-2,-1
1461662321081025,1,9,1,-5,-1,1,1,0
1461662321081025,-1,-6,-2,-1,-3,-2,0,-2
1461662321095091,4,-1,-6,1,-1,-1,0,-1
1461662321095091,-2,-3,-4,-1,-4,-1,-1,-2
1461662321104055,0,6,3,-4,-1,0,-3,0
1461662321104055,-6,-5,2,-1,-1,0,-3,-1
1461662321110076,0,-2,9,-8,-1,-2,-1,1
1461662321110076,1,-4,-14,1,0,-2,-1,2
1461662321119066,-2,-5,-5,-1,-2,-1,0,1
1461662321119066,2,0,-1,-2,-3,-1,0,-1
1461662321132119,-1,-1,-1,3,2,0,-2,-3
1461662321132119,-2,0,7,0,1,1,0,0
1461662321141082,2,10,-4,-1,-3,0,-3,2
1461662321141082,2,2,4,1,0,1,0,-1
1461662321156079,2,2,-2,-6,-5,-2,-3,-1
1461662321156079,-2,-6,-8,-4,-2,-1,-1,-2
1461662321162083,5,6,2,1,-1,-2,1,1
1461662321162083,-5,1,5,-7,-1,-2,1,-2
1461662321170117,1,-5,1,6,3,3,1,-1
1461662321170117,-3,4,-4,0,-2,0,-2,-1
1461662321179124,3,9,8,-2,-2,-2,-2,0
1461662321179124,-3,-15,-11,2,-1,-2,0,-1
1461662321192102,5,0,-4,-6,-5,-4,0,-2
1461662321192102,-5,-2,1,-1,0,-2,-2,-3
1461662321201109,-5,-7,-3,0,1,0,-1,-2
1461662321201109,1,8,0,-2,-2,-2,-1,-1
1461662321215118,-4,-5,-1,-2,-1,0,-1,0
1461662321215118,-1,-7,0,2,0,0,-2,-1
1461662321222183,1,5,-8,-5,-3,-3,0,-3
1461662321222183,-2,-8,6,0,1,-2,-3,-2
1461662321230188,-4,13,8,0,-2,-3,-3,-4
1461662321230188,-2,-6,-1,-12,-4,0,0,-1
1461662321239136,-1,-3,3,19,7,-1,0,0
1461662321239136,0,1,-10,-9,-5,0,-2,-1
1461662321252145,1,-4,-6,-8,-7,-3,-2,-1
1461662321252145,-2,-4,14,14,5,-1,1,2
1461662321261151,0,1,-1,-8,-6,-1,-1,0
1461662321261151,-2,-6,-7,8,1,0,-2,-3
1461662321275213,0,-5,-8,-4,-3,0,0,-1
1461662321275213,-1,2,-9,-9,-4,0,-1,-3
1461662321284201,-3,-3,-6,-5,-1,0,1,-1
1461662321284201,0,2,3,-1,-2,-2,-4,-5
1461662321290205,-6,-3,2,0,3,3,1,-1
1461662321290205,2,4,-1,4,-1,-2,0,-1
1461662321299235,-6,-2,2,0,-1,-2,0,-2
1461662321299235,1,4,-4,0,0,0,-1,0
1461662321321244,-2,-2,6,1,0,-1,-1,0
1461662321321244,-5,-1,0,4,2,0,-1,0
1461662321323229,0,-1,3,-4,0,-1,-2,-2
1461662321323229,1,3,-5,-4,-2,-1,0,2
1461662321335239,1,-10,-7,2,1,-3,-1,-1
1461662321335239,-2,0,-2,2,0,-1,1,0
1461662321344245,-2,7,5,-6,-2,-3,1,1
1461662321344245,1,0,-4,0,0,-2,-1,-1
1461662321349432,-3,-6,8,-1,1,-1,-3,-1
1461662321349432,1,-2,-3,-1,1,0,-2,1
1461662321358379,-1,-3,-7,-4,-4,-3,-3,-2
1461662321358379,-1,-4,-8,-4,-5,-1,-1,-3
1461662321372389,0,3,6,5,5,1,1,0
1461662321372389,0,-1,-1,-2,-1,-1,-3,0
1461662321381396,2,-5,-5,0,-1,1,1,3
1461662321381396,-1,-1,9,-2,-3,0,-4,-2
1461662321394403,3,13,2,1,-2,-1,1,-1
1461662321394403,0,3,-3,1,-1,-2,-1,-2
1461662321404410,5,-2,-11,-4,1,-2,1,0
1461662321404410,-6,-8,8,0,0,-4,-1,-4
1461662321409413,4,2,-5,-6,-4,-2,1,-1
1461662321409413,0,10,4,9,3,1,-1,1
1461662321418419,0,-12,-5,-9,-5,-1,-4,0
1461662321418419,-4,-5,8,7,2,0,0,-1
1461662321432431,-1,1,-3,6,2,2,0,-1
1461662321432431,3,1,-6,0,0,-3,1,-1
1461662321441436,3,2,-5,0,0,1,-1,-1
1461662321441436,-3,-5,-6,-5,-5,-3,-2,-2
1461662321454461,0,1,4,-1,-1,0,-2,0
1461662321454461,-3,-5,0,-6,-5,0,3,-1
1461662321463458,1,-2,6,-2,-3,-1,-4,-3
1461662321463458,2,9,1,4,2,0,-2,-3
1461662321469471,-1,-2,-10,-4,-3,1,0,0
1461662321469471,-2,-3,-2,-3,0,0,1,-1
1461662321478464,-1,1,4,-9,-8,-2,-1,-2
1461662321478464,-3,-1,-10,3,3,-2,0,-2
1461662321492530,-1,0,1,-9,-11,-7,-4,-3
1461662321492530,0,1,3,27,19,7,3,2
1461662321501496,-8,-2,1,0,4,2,1,0
1461662321501496,6,2,-3,-10,-7,-4,-3,1
1461662321514550,1,-1,-3,2,6,-1,2,3
1461662321514550,-5,-9,-3,-17,-13,-4,-2,-1
1461662321523495,4,21,2,-13,-8,-2,-3,0
1461662321523495,-6,-25,0,33,13,1,-3,-2
1461662321529527,-5,0,6,10,7,2,3,0
1461662321529527,-1,-2,-1,-5,-4,-1,0,0
1461662321538510,4,6,-2,1,1,1,10,0
1461662321538510,0,3,-9,-21,-12,1,-1,0
1461662321552577,-2,-9,-7,-11,-10,-6,-6,-2
1461662321552577,2,7,-10,-17,-2,-9,-23,-2
1461662321561524,-8,-13,11,30,10,-3,-9,-5
1461662321561524,4,4,-2,-6,2,2,1,0
1461662321574559,-4,-4,-8,-35,-18,-2,11,-1
1461662321574559,-8,-9,-5,-37,-30,-12,-12,-8
1461662321583541,-4,5,4,52,23,4,-3,0
1461662321583541,4,7,12,20,16,4,1,2
1461662321589542,-2,-3,-11,3,14,4,3,-1
1461662321589542,-1,-3,-8,-40,-22,-2,3,-4
1461662321598548,3,-1,5,23,5,3,11,4
1461662321598548,0,-7,-8,2,7,3,19,6
1461662321612574,8,22,11,3,1,6,-2,2
1461662321612574,3,6,10,8,8,6,-1,3
1461662321621580,-8,13,-20,-48,-29,-21,-18,-6
1461662321621580,-6,-24,-2,9,-2,-7,-12,-6
1461662321634585,13,0,-17,-43,-15,2,14,4
1461662321634585,-13,22,16,40,12,10,-19,-9
1461662321643582,-7,-18,1,29,8,-17,-23,-12
1461662321643582,-16,-55,-21,2,1,-12,-15,-6
1461662321649604,-3,9,7,-9,-17,-7,-3,4
1461662321649604,-2,-43,-10,8,15,13,29,4
1461662321658589,0,-2,11,-41,3,12,0,9
1461662321658589,-17,-13,5,43,4,1,1,-11
1461662321672617,1,15,11,46,33,18,19,0
1461662321672617,8,-22,0,-46,-17,3,28,8
1461662321681645,2,-14,-25,-2,8,-2,5,3
1461662321681645,-2,38,8,-20,-21,-13,-26,-3
1461662321694644,-7,-23,-12,3,-9,-10,-24,-11
1461662321694644,-5,20,19,18,6,-15,-21,-1
1461662321710656,11,2,0,-12,-9,5,13,0
1461662321710656,15,38,-4,-49,-13,20,49,15
1461662321711629,-6,0,3,14,10,10,42,8
1461662321711629,-6,-19,7,61,8,-14,-61,-18
1461662321718633,-15,-12,-24,-24,-9,-13,-11,-11
1461662321718633,14,11,23,-19,-12,3,-3,2
1461662321732654,10,-26,-16,19,20,7,-7,2
1461662321732654,-10,27,-5,-8,-13,-25,-3,3
1461662321741682,18,28,21,-20,-5,-5,-21,-5
1461662321741682,6,-28,-22,27,7,8,5,-7
1461662321754772,-8,20,16,-38,-30,-1,10,5
1461662321754772,1,-17,-23,36,38,32,55,18
1461662321763769,9,31,0,-71,-34,18,48,-5
1461662321763769,-9,-13,3,-30,-23,-20,-38,-4
1461662321769782,-8,-22,-19,65,64,-19,-91,-16
1461662321769782,8,59,17,-33,-15,-27,-53,-9
1461662321778775,-9,-70,-28,-9,12,15,17,3
1461662321778775,16,4,0,-48,-21,2,37,9
1461662321792815,-1,-15,5,-18,-16,9,8,2
1461662321792815,13,72,16,6,-4,-3,-6,5
1461662321801799,-15,-76,-6,3,-6,-4,52,3
1461662321801799,-12,-27,18,12,9,14,-11,4
1461662321814801,-18,6,-21,-35,-26,-19,-17,-11
1461662321814801,11,-39,-4,-95,-30,28,79,-3
1461662321823808,12,63,17,102,60,21,-102,-10
1461662321823808,-15,-25,-13,75,27,-50,-59,-1
1461662321829814,25,28,46,24,-6,-16,-11,16
1461662321829814,-7,7,15,-27,-8,-9,-14,-10
1461662321838818,-7,-29,-18,-21,-29,-7,39,6
1461662321838818,16,49,-21,-63,0,49,86,8
1461662321851827,-12,18,15,74,31,-6,-86,-7
1461662321851827,-4,-3,-4,61,20,-18,-53,-2
1461662321860846,4,6,-1,-1,5,-7,-17,-3
1461662321860846,8,-29,6,-89,-27,6,9,-15
1461662321874843,13,-70,5,48,1,13,74,-1
1461662321874843,-23,15,-24,3,9,11,27,28
1461662321883850,-23,39,26,29,3,-21,-2,-7
1461662321883850,8,89,-1,-22,-8,3,-8,-2
1461662321898919,9,127,12,-67,-26,-2,1,-5
1461662321898919,1,-60,-39,11,1,1,42,-6
1461662321899863,-4,54,7,-54,-23,4,-41,6
1461662321899863,-3,37,-26,34,22,-17,-63,-12
1461662321912875,9,44,-16,-7,-12,-30,-40,-8
1461662321912875,-7,-30,-4,-57,-27,23,80,2
1461662321935888,-21,-8,37,55,37,20,4,1
1461662321935888,18,93,34,-2,-11,-27,29,16
1461662321935888,-13,-45,-6,-77,-32,11,31,6
1461662321935888,2,14,-32,56,40,-31,-99,-15
1461662321943896,-38,25,-52,-38,-25,-3,-2,-15
1461662321943896,10,-68,-10,-44,0,10,28,-15
1461662321959006,-13,-9,-17,18,-15,18,42,-2
1461662321959006,-16,3,-3,0,-21,-9,21,6
1461662321959993,18,-51,33,33,12,-5,-34,9
1461662321959993,8,-57,22,48,16,-12,-45,-6
1461662321972016,5,-90,6,-62,-1,0,40,14
1461662321972016,25,-86,-6,-17,-11,20,47,13
1461662321981025,-32,-34,12,45,18,-7,-67,-23
1461662321981025,5,-3,-4,-72,-47,-33,0,9
1461662321995081,2,-54,-9,27,29,-4,-44,-12
1461662321995081,-18,-10,47,17,0,-13,-30,-10
1461662322011031,15,-66,-60,46,15,19,60,7
1461662322011031,-14,-77,2,-22,-27,7,44,-14
1461662322019038,20,54,-22,-27,2,20,-46,-1
1461662322019038,-25,74,-8,54,46,-20,-21,29
1461662322020038,17,44,54,-35,-18,-8,24,9
1461662322020038,-12,-22,-21,-12,4,47,64,-1
1461662322032045,-12,32,-30,3,10,-15,-31,-18
1461662322032045,-6,34,-19,-30,-5,-9,-13,-12
1461662322041055,2,1,6,-27,-6,14,48,4
1461662322041055,28,-5,20,96,38,29,-6,-4
1461662322071086,-9,-1,10,-42,-25,-34,-42,-10
1461662322071086,-32,17,-32,-33,-27,-14,-11,18
1461662322073087,-16,8,-8,1,6,-6,-10,-2
1461662322073087,-12,-8,20,-3,13,-7,-63,-28
1461662322093146,10,19,23,-26,-38,-1,87,1
1461662322093146,1,23,45,-45,11,55,77,-17
1461662322100098,10,12,-20,55,56,-20,-69,9
1461662322100098,20,-27,-15,-11,-14,-38,-42,37
1461662322124168,-23,-3,4,52,32,22,-9,-8
1461662322124168,-14,18,22,-38,-74,-51,-39,-33
1461662322127143,6,-12,35,-48,-11,55,76,9
1461662322127143,15,-17,-5,78,36,-12,18,19
1461662322145183,-5,7,-52,13,1,-15,-19,-8
1461662322145183,-10,10,16,-54,-4,41,2,-3
1461662322155131,-6,-9,-14,8,-8,-27,-54,-26
1461662322155131,10,-31,-35,-6,-8,-18,21,7
1461662322156131,-2,10,9,8,5,38,23,-4
1461662322156131,-18,24,-11,85,23,-21,-60,8
1461662322157157,-25,2,8,-33,-26,-34,-29,4
1461662322157157,59,-51,14,-8,2,-6,-11,8
1461662322160243,36,1,24,-5,5,58,61,2
1461662322160243,-41,11,-47,-57,-33,-47,-35,-20
1461662322167190,8,8,-12,14,-18,-50,-73,17
1461662322167190,8,-34,5,-33,-3,-1,-17,4
1461662322184201,8,-2,21,-89,-28,17,37,-13
1461662322184201,-21,21,33,118,73,43,41,-19
1461662322190263,-14,4,-57,-79,-17,2,51,11
1461662322190263,-6,-21,36,27,-39,1,-25,-7
1461662322198270,27,8,-10,54,92,8,-10,9
1461662322198270,-27,30,-3,-45,6,4,13,-12
1461662322205221,-6,-3,15,-16,-6,16,28,-2
1461662322205221,32,-25,-24,-75,-39,3,4,12
1461662322212223,7,11,-2,-8,-27,-18,-48,1
1461662322212223,-27,18,9,87,16,-46,-74,-7
1461662322221229,-42,-7,-23,-21,-15,26,83,10
1461662322221229,20,-21,-16,-20,-11,5,10,-7
1461662322235238,6,5,21,21,-13,-65,-81,8
1461662322235238,-37,15,-21,-35,-12,-3,-22,-11
1461662322244249,31,-13,24,-78,-33,4,-7,5
1461662322244249,30,-5,-36,63,37,14,12,-1
1461662322266417,18,4,18,21,28,-8,11,6
1461662322266417,-20,4,-45,-99,-29,46,113,4
1461662322267424,-18,-3,82,83,23,-4,-55,-25
1461662322267424,4,-5,-29,41,70,9,-35,28
1461662322272421,23,4,9,-28,-16,0,13,9
1461662322272421,-9,5,-45,32,21,13,16,-9
1461662322281409,-2,-14,-19,-52,-22,4,14,1
1461662322281409,5,-8,32,-43,-7,27,70,0
1461662322294428,-31,5,-7,45,-3,-26,-66,-33
1461662322294428,21,8,9,-23,-18,-3,60,42
1461662322303435,-23,-6,-26,-2,0,-21,-60,-25
1461662322303435,32,-3,41,19,1,14,33,45
1461662322317445,-13,5,-51,-43,-28,-27,1,-18
1461662322317445,12,-1,35,-18,-10,7,-55,-27
1461662322324435,-7,0,4,5,-3,-16,-20,-14
1461662322324435,-9,-1,-32,-35,-4,-3,-23,-9
1461662322332481,2,2,19,30,23,13,22,-1
1461662322332481,-17,-2,25,1,13,-2,-8,-5
1461662322341449,12,-4,-3,36,-17,-5,29,5
1461662322341449,22,0,9,77,47,13,-6,0
1461662322354486,-22,-2,-27,-58,-25,2,28,6
1461662322354486,2,-1,10,19,18,14,-10,-8
1461662322363493,12,-5,33,-1,-15,-2,20,9
1461662322363493,-13,1,1,-25,-29,-37,-56,6
1461662322378510,20,0,-23,16,9,11,53,4
1461662322378510,-21,-5,21,-20,-26,-42,-70,-26
1461662322384493,14,-10,-9,-11,3,-10,26,15
1461662322384493,-9,5,2,3,-2,30,-5,-6
1461662322416501,10,6,21,-2,-1,19,6,17
1461662322416501,-18,5,-2,2,14,11,-15,-11
1461662322417503,-1,-4,-2,3,-1,-10,33,22
1461662322417503,1,-5,-36,-57,-32,-32,-13,-7
1461662322439556,-4,3,13,7,-6,1,-4,-6
1461662322439556,6,2,7,0,5,26,25,5
1461662322441519,-22,-10,-20,54,53,10,-13,-6
1461662322441519,16,1,14,17,21,6,17,-2
1461662322459571,10,5,40,-12,-7,4,0,5
1461662322459571,-3,5,-12,-2,-15,-12,-11,-3
1461662322474581,14,-3,22,-19,-5,4,-1,-1
1461662322474581,3,6,-55,-20,-12,-10,-7,-13
1461662322491590,-35,-3,13,12,9,-2,-1,-1
1461662322491590,15,-6,9,10,-4,-84,-27,10
1461662322492556,14,12,-12,-21,-11,91,46,-2
1461662322492556,-22,22,-2,-8,-9,18,-3,-16
1461662322497617,10,-128,-14,5,3,-26,16,10
1461662322497617,-14,0,-2,-1,-11,-36,-59,-9
1461662322498559,3,123,-13,-11,-4,-27,-28,25
1461662322498559,4,124,13,2,-2,41,14,-10
1461662322506582,-9,30,-19,-5,-11,39,31,4
1461662322506582,27,-96,8,-33,-17,12,31,16
1461662322507582,2,-28,-21,20,24,-30,-8,-6
1461662322507582,-13,80,21,7,13,-29,-12,-18
1461662322512570,-24,-22,-20,0,7,-20,-15,-3
1461662322512570,17,-77,6,29,7,22,18,7
1461662322521587,10,-3,-25,-27,-16,-11,-22,-14
1461662322521587,-20,16,1,-5,-10,-11,1,-10
1461662322534615,-15,-100,7,-6,-3,-3,-13,-10
1461662322534615,12,-128,-20,-5,-2,0,-7,4
1461662322543591,18,1,-4,-10,-3,21,13,1
1461662322543591,-29,-11,1,0,-7,-6,-3,-4
1461662322557612,-17,-17,0,-5,-7,-62,-6,-4
1461662322557612,26,-30,-3,8,7,45,18,10
1461662322566609,51,34,9,10,15,40,47,12
1461662322566609,-44,75,-19,-9,-11,-42,-38,-12
1461662322572623,-40,5,-4,-4,-9,5,-87,-19
1461662322572623,17,-44,1,5,6,-23,1,10
1461662322581620,20,10,0,-9,-10,-16,-4,-9
1461662322581620,-22,15,13,-24,-21,0,15,-2
1461662322594665,0,33,34,11,8,5,23,13
1461662322594665,29,32,-33,47,23,17,10,7
1461662322603635,0,39,13,1,3,-10,-12,-4
1461662322603635,-19,41,10,21,12,-1,3,-2
1461662322625668,-8,70,14,-11,-4,2,-1,3
1461662322625668,28,29,-33,-6,-8,18,12,7
1461662322627650,4,23,6,-4,-9,-10,-11,-5
1461662322627650,-26,72,4,-14,-13,0,-13,-10
1461662322641664,-6,17,-54,-15,-11,7,5,-2
1461662322641664,19,-3,9,-3,-1,0,7,5
1461662322642664,-4,24,-27,-6,-6,1,-4,-5
1461662322642664,-22,2,23,1,1,-18,-8,-9
1461662322654684,-4,-83,6,8,0,-8,-11,3
1461662322654684,13,-56,6,1,6,18,15,5
1461662322663677,-2,-36,1,-4,-2,-6,0,4
1461662322663677,-11,76,7,5,0,3,-6,-32
1461662322677699,-5,127,-13,1,-2,-6,11,-2
1461662322677699,16,110,9,-12,-7,-13,-13,0
1461662322686759,7,-19,6,3,-5,-7,-9,-5
1461662322686759,-12,22,-6,1,1,5,2,4
1461662322701706,6,47,-3,0,9,11,6,8
1461662322701706,12,70,2,-9,-3,-1,-6,-3
1461662322703706,-2,38,2,6,3,-3,0,-3
1461662322703706,-12,19,3,15,0,-2,4,5
1461662322714774,-7,-3,-8,-6,-7,2,1,1
1461662322714774,17,39,20,-2,-5,-7,6,10
1461662322723724,1,30,-13,-7,-4,6,0,-5
1461662322723724,-26,-38,-36,-15,-3,-14,-7,-7
1461662322737759,0,-9,0,6,-2,-4,6,2
1461662322737759,15,-26,-5,-1,4,35,11,2
1461662322746747,-3,-47,4,-2,-3,-21,-15,-8
1461662322746747,-11,-33,2,-1,-3,2,-5,-3
1461662322752757,-9,12,9,0,-1,-1,-2,2
1461662322752757,12,57,-13,0,2,-3,5,2
1461662322767750,-3,30,3,0,1,2,-2,-8
1461662322767750,-12,-7,-2,-2,0,2,4,1
1461662322774783,5,-6,5,-3,-1,-1,-1,2
1461662322774783,2,22,14,-3,-7,-14,-8,-3
1461662322783768,3,13,5,-4,1,-5,-1,-5
1461662322783768,-7,-20,-5,4,6,1,-1,1
1461662322797803,-3,-25,-7,0,-5,3,1,0
1461662322797803,3,-19,25,-2,0,-1,-3,2
1461662322806777,-2,-44,-21,-4,-3,3,-1,0
1461662322806777,-3,-2,28,12,1,-4,-4,-2
1461662322821790,-2,-11,-16,2,3,8,3,-1
1461662322821790,7,5,5,14,6,5,3,1
1461662322822791,3,4,-12,-12,-1,-7,-3,-2
1461662322822791,-10,-15,-5,5,3,4,-1,-2
1461662322834798,-11,-10,4,-6,-3,4,2,-2
1461662322834798,6,3,9,9,4,-3,-4,2
1461662322843804,-4,-12,2,4,-3,-17,-8,-4
1461662322843804,-3,-24,-16,-5,-2,9,4,0
1461662322857813,1,11,0,-5,-1,-4,2,0
1461662322857813,4,-11,-2,-5,-3,-13,0,1
1461662322864818,2,7,7,2,4,25,3,-3
1461662322864818,-10,-11,-12,-10,-3,1,1,-1
1461662322880829,-5,-9,2,2,0,-1,-1,-1
1461662322880829,3,-9,-9,-5,-4,1,1,-2
1461662322882831,-2,-4,7,1,-3,-8,-3,-1
1461662322882831,-7,-10,8,-7,-4,-10,-5,-4
1461662322894842,3,11,1,4,2,4,-1,1
1461662322894842,-5,2,9,0,0,-2,-3,-2
1461662322910928,-1,3,-29,-13,-3,-3,-4,-3
1461662322910928,-1,-2,2,16,2,-1,-2,0
1461662322917895,-2,2,-7,2,2,-8,-2,-1
1461662322917895,3,2,6,-11,1,6,1,1
1461662322924937,-2,-8,7,-1,-3,-7,0,-2
1461662322924937,-2,-12,-20,-7,-4,-2,0,0
1461662322940949,2,-5,1,-6,-5,-3,-3,-2
1461662322940949,1,-1,-6,1,-1,3,2,-2
1461662322942925,3,-15,-1,-2,-2,-8,-6,-2
1461662322942925,-5,-6,0,-6,-6,-5,-2,-2
1461662322954939,2,6,10,-1,-1,3,2,1
1461662322954939,3,1,-7,-8,-3,-28,-10,1
1461662322963930,-1,-3,-2,2,0,35,13,0
1461662322963930,-3,5,2,-1,-1,10,2,-1
1461662322977955,-1,-1,-8,-1,1,5,1,0
1461662322977955,6,0,-8,-3,-1,-2,0,1
1461662322984949,-1,-4,7,3,-2,-18,-9,-2
1461662322984949,-6,-7,-4,0,2,-6,-1,-2
1461662323008996,-1,-3,-2,-8,-5,6,2,1
1461662323008996,6,-4,-13,-2,-1,4,-4,0
1461662323010961,0,4,23,11,2,-11,-5,-2
1461662323010961,-3,0,6,5,8,2,1,-1
1461662323015001,0,0,0,-1,-2,-11,-3,-1
1461662323015001,0,-10,-17,-1,1,7,5,0
1461662323023982,-8,-4,-12,0,-3,-2,-3,-4
1461662323023982,-3,-2,-3,-7,-6,-9,-3,-1
1461662323038017,-4,5,12,1,-1,-1,0,-3
1461662323038017,1,0,1,-3,-5,4,2,-1
1461662323044985,-5,-5,-10,-4,-2,-5,-3,-1
1461662323044985,7,10,11,0,0,6,2,0
1461662323061024,-8,-16,-21,-3,-3,-9,0,-1
1461662323061024,5,4,3,-4,-2,4,-3,-2
1461662323063025,-1,-6,2,2,0,-14,-2,-1
1461662323063025,0,0,-5,1,-4,7,1,3
1461662323075022,1,8,17,-1,0,5,1,-1
1461662323075022,0,-2,3,0,-1,-1,1,0
1461662323084014,0,-7,-6,-4,0,-5,-3,0
1461662323084014,1,7,-3,-3,0,-5,-1,0
1461662323098039,0,-2,-7,-2,1,0,0,0
1461662323098039,-3,-2,13,8,0,1,-2,-1
1461662323105037,0,1,4,-5,-3,0,1,-3
1461662323105037,-1,-2,8,2,-2,-1,0,0
1461662323121076,0,-4,-5,3,3,4,4,1
1461662323121076,-5,-5,-1,-5,-1,0,1,0
1461662323123052,3,-4,-18,-2,1,0,2,-1
1461662323123052,-3,-3,4,-5,-5,-4,-1,-3
1461662323135086,0,-1,-1,1,-2,-10,-6,-1
1461662323135086,1,0,1,-2,-4,3,-1,1
1461662323144067,-1,0,10,1,-2,5,3,-1
1461662323144067,-2,-1,-7,-3,-1,-6,-4,-1
1461662323158123,-1,1,-2,0,0,5,-2,-2
1461662323158123,-1,1,-5,0,1,-8,-2,0
1461662323165188,-1,-1,-2,-1,-2,1,-1,-1
1461662323165188,-1,-3,-5,-4,1,-1,-1,-2
1461662323181198,0,2,4,1,-1,-5,-1,-1
1461662323181198,2,-2,-3,-1,1,2,0,-1
1461662323183205,0,-4,5,7,1,-4,-4,-2
1461662323183205,-1,-3,-6,-10,-9,-4,-2,-1
1461662323195152,1,-1,11,8,4,3,0,0
1461662323195152,-2,-15,-15,-3,-2,-1,-2,-1
1461662323204158,-2,0,-1,-7,-5,-2,-1,0
1461662323204158,-3,-4,-9,-3,1,-1,0,0
1461662323217257,-4,-2,1,15,7,2,2,-4
1461662323217257,-1,-2,6,4,0,3,1,-1
1461662323226263,-2,-2,-5,-3,-1,-1,-3,0
1461662323226263,-2,2,-1,-4,-1,-1,1,-1
1461662323241332,-4,-1,4,-5,-8,-2,-2,1
1461662323241332,1,5,-1,1,0,1,0,-2
1461662323243290,-1,-2,0,-3,-1,0,-3,-4
1461662323243290,-3,1,8,-1,-3,-4,-5,-4
1461662323255282,2,3,-4,-6,1,4,2,0
1461662323255282,1,0,-2,-1,-2,2,0,1
1461662323264305,-2,-4,-10,-2,0,-6,0,2
1461662323264305,-4,-1,1,0,0,0,-2,-1
1461662323277357,0,-9,-10,-2,-2,1,0,0
1461662323277357,0,-7,-1,-4,-1,-1,-1,-2
1461662323286320,0,0,-1,-3,-2,-1,-2,-4
1461662323286320,-4,-7,-6,6,1,-3,-2,-2
1461662323302328,-2,-1,-3,-5,-3,-3,-1,-2
1461662323302328,1,5,1,2,1,0,1,2
1461662323303316,-1,0,-1,-1,0,-3,-2,-2
1461662323303316,-1,1,10,5,3,1,-1,0
1461662323315341,-1,1,0,1,1,2,-1,1
1461662323315341,1,0,1,-1,-3,-1,0,-1
1461662323324355,-7,-1,0,-3,-1,-1,0,-4
1461662323324355,2,1,-3,-1,-2,0,-1,-1
1461662323337400,1,-3,3,-5,-2,-5,-2,-2
1461662323337400,-4,-2,-4,-1,-1,-3,-3,-4
1461662323346349,0,-5,-3,6,-2,1,-2,-1
1461662323346349,1,1,-3,2,-2,-3,0,-2
1461662323361417,-1,0,-4,-6,-3,-2,-1,-3
1461662323361417,0,3,3,1,1,0,0,-2
1461662323362360,0,-1,4,0,-2,-1,-1,-1
1461662323362360,-1,-1,3,-4,0,0,0,1
1461662323375370,-1,7,2,1,-2,-4,-3,2
1461662323375370,1,-1,-1,1,-1,0,0,2
1461662323383376,1,-1,-5,0,0,4,2,-3
1461662323383376,-1,-2,-3,1,2,-2,1,-2
1461662323397386,-2,1,-7,-6,0,0,-3,-1
1461662323397386,-1,-5,-10,-5,-1,-4,0,0
1461662323406390,0,-4,14,1,0,-1,-3,0
1461662323406390,-1,2,1,-2,-4,-4,-1,2
1461662323420400,-2,-4,-9,1,1,3,1,-2
1461662323420400,-2,-3,-3,2,-2,-1,-2,-1
1461662323428406,1,-5,-5,0,0,-1,0,-2
1461662323428406,0,2,1,1,2,1,-1,-2
1461662323434409,0,-2,-1,4,2,0,0,-2
1461662323434409,-3,-6,-1,-1,-2,-3,-3,-1
1461662323451422,-6,2,1,1,1,-3,-1,-3
1461662323451422,-2,-4,-2,-4,-2,2,2,2
1461662323457425,-1,-4,-5,0,-1,-3,0,0
1461662323457425,1,4,6,-3,-3,-5,-2,-1
1461662323466432,0,-1,-1,4,3,3,0,-2
1461662323466432,-1,-4,-7,-4,-4,-3,-2,-3
1461662323481502,0,1,2,1,2,2,-2,1
1461662323481502,0,1,4,-1,1,0,-1,0
1461662323482460,0,-8,-14,-6,-1,-3,-1,0
1461662323482460,-1,-1,-3,1,1,2,-2,-2
1461662323495488,-2,-3,3,-3,-2,-2,-3,0
1461662323495488,-2,2,3,-3,-2,-1,-2,-2
1461662323503462,1,0,-5,-5,-2,-1,-2,-1
1461662323503462,1,4,-3,4,1,0,1,-1
1461662323517470,-5,-15,-9,-5,-5,-4,0,-2
1461662323517470,-3,-1,2,-1,1,5,1,-1
1461662323526479,-3,-1,-1,-2,-1,1,-2,0
1461662323526479,-2,-5,1,-2,-2,0,-1,-1
1461662323541549,1,4,3,0,-2,-4,-1,-1
1461662323541549,0,2,1,1,0,-1,1,-1
1461662323542507,0,-1,-3,-8,-5,-3,-1,-1
1461662323542507,-1,0,-5,-2,2,-1,-2,0
1461662323554509,-5,2,17,5,1,2,3,0
1461662323554509,2,-2,-4,0,2,2,0,1
1461662323571507,-1,-1,-3,-1,-1,-2,-2,0
1461662323571507,0,-1,0,1,0,-1,-1,-1
1461662323577526,1,-1,-3,-3,-3,-2,-1,-1
1461662323577526,0,1,0,-6,-6,-2,-2,-1
1461662323586520,2,0,7,2,1,0,-4,-3
1461662323586520,0,-3,-6,-4,-2,0,0,0
1461662323600528,1,4,-2,-2,0,0,-1,0
1461662323600528,-3,-9,1,-3,-4,-4,0,-1
1461662323607531,1,4,1,1,-3,-1,0,-1
1461662323607531,-2,-3,3,-1,-3,0,0,-1
1461662323614599,-3,-3,0,0,0,0,-1,-1
1461662323614599,-1,0,-4,0,0,-1,0,-1
1461662323623573,-1,2,-3,-2,-3,-3,-2,1
1461662323623573,0,1,19,-1,-1,0,-1,-2
1461662323637583,-4,-10,-22,-5,-2,-1,1,0
1461662323637583,2,-2,-1,0,1,1,0,2
1461662323646560,-2,-4,1,-1,-1,-2,-1,-2
1461662323646560,-1,5,2,-3,-2,-2,-2,-1
1461662323660632,1,7,6,0,-1,-1,-1,1
1461662323660632,-6,0,-4,-3,0,-2,-2,-3
1461662323667575,0,-2,-6,3,-2,5,1,-1
1461662323667575,-2,-9,-5,3,1,-3,-1,-2
1461662323674581,0,0,6,6,2,3,4,0
1461662323674581,1,2,-1,1,0,0,0,-1
1461662323683588,-2,-8,0,-7,-2,-5,-1,-2
1461662323683588,0,4,-3,-5,-4,-3,-4,-1
1461662323697597,-1,-4,-7,-3,-1,0,-3,-1
1461662323697597,4,5,1,0,-2,-1,0,0
1461662323706604,-2,-4,-2,-9,-4,-3,-1,-2
1461662323706604,2,2,0,12,5,1,1,2
1461662323720614,-2,0,1,-3,-1,-3,-3,-1
1461662323720614,1,2,1,-1,0,2,0,-3
1461662323727619,-2,4,-1,-3,-2,-1,-1,-1
1461662323727619,-4,-13,-11,-3,-2,-3,0,-2
1461662323734653,2,2,1,1,-2,0,-2,-1
1461662323734653,-2,-5,2,2,-1,-1,-2,-1
1461662323743646,1,-3,-2,-1,-1,0,-1,-1
1461662323743646,-1,-1,0,-1,-2,1,-2,-2
1461662323757650,-3,1,2,-5,-2,-3,-1,1
1461662323757650,-1,-1,-4,-6,-3,-1,-3,-1
1461662323766660,0,-2,0,8,3,-2,-2,-2
1461662323766660,1,3,-2,-3,-1,1,-2,1
1461662323780654,-2,-3,-3,0,1,0,-3,0
1461662323780654,-1,1,3,-6,-5,-4,-2,-1
1461662323787674,-1,1,6,5,0,-2,0,0
1461662323787674,-1,-9,-5,-2,3,0,1,-1
1461662323803686,0,8,11,-3,-1,-2,-1,-2
1461662323803686,3,3,-11,3,3,0,0,2
1461662323805688,0,-2,-5,-3,-3,-4,-3,-1
1461662323805688,-3,2,4,1,-2,-3,-1,-2
1461662323817680,-2,-1,-5,-7,-1,1,1,-1
1461662323817680,-2,4,2,1,-1,-1,-1,1
1461662323826699,-3,-13,-8,-5,-1,-2,-1,-1
1461662323826699,-4,-2,1,0,-5,-1,-3,-3
1461662323840709,-8,-6,4,9,3,1,0,-4
1461662323840709,1,0,1,0,1,-1,-1,-2
1461662323847713,0,1,-4,-4,-3,-1,-2,-1
1461662323847713,1,4,0,-5,-5,-4,-2,-1
1461662323863714,-1,-2,-4,-2,-4,2,-2,0
1461662323863714,-1,-2,-4,1,-1,1,-1,-2
1461662323869716,0,-6,2,0,-1,-1,0,0
1461662323869716,-1,2,4,1,-1,-1,0,1
1461662323877762,3,3,-1,3,-2,-4,-3,1
1461662323877762,0,-5,-8,1,-2,-4,-2,-2
1461662323886767,-6,-4,1,1,0,-1,-3,-4
1461662323886767,0,0,-3,4,-2,-1,-2,0
1461662323900740,-2,-2,8,-2,-1,-1,1,1
1461662323900740,-2,-9,1,-1,-2,-3,-1,1
1461662323907758,4,5,-3,-8,-2,-3,-2,-2
1461662323907758,-1,-4,-3,-9,-1,0,0,-2
1461662323923757,-3,14,1,0,1,1,2,-2
1461662323923757,-1,0,0,-9,-1,0,0,-1
1461662323929761,-1,-2,-9,2,-1,-2,-2,-1
1461662323929761,-2,2,4,2,-3,0,-1,-1
1461662323937836,3,-7,-3,-5,-4,-1,-1,-1
1461662323937836,0,-4,-2,5,2,5,1,0
1461662323946794,3,4,5,-5,-2,-1,-2,-2
1461662323946794,0,-6,-8,-2,0,0,0,-2
1461662323960873,-2,-8,-11,-5,-1,-2,-1,0
1461662323960873,-1,1,3,-3,0,-1,-1,-2
1461662323966860,1,0,1,3,2,-1,1,-2
1461662323966860,-3,-1,1,-2,-3,-3,-2,-1
1461662323983869,-4,1,-10,-1,-3,-2,-3,0
1461662323983869,2,2,4,1,1,-2,-3,2
1461662323984867,0,2,-2,-6,-3,-1,-2,-1
1461662323984867,-4,-10,0,0,-2,3,4,0
1461662323996915,-4,2,1,6,4,-1,3,2
1461662323996915,1,4,-1,2,-3,-3,0,0
1461662324005897,0,-3,-8,-3,-3,-1,-3,-2
1461662324005897,-2,-1,-3,-11,-5,-2,-4,-1
1461662324020908,1,-4,-3,2,0,-1,0,-2
1461662324020908,1,0,-5,1,1,0,1,2
1461662324026936,-2,-1,5,0,-3,-4,-1,-2
1461662324026936,0,0,-6,-8,-1,0,0,0
1461662324043972,-1,-5,3,-4,-2,1,-3,0
1461662324043972,-1,1,7,2,0,0,-1,-1
1461662324044916,0,-4,-4,-1,-1,0,-3,-2
1461662324044916,1,5,2,10,7,1,1,1
1461662324065954,-2,-1,2,2,2,-1,-1,1
1461662324065954,-3,-4,-6,-8,-6,-1,0,-3
1461662324067935,0,-1,-9,-11,-9,-5,-1,-2
1461662324067935,0,0,11,19,13,1,0,-1
1461662324080967,1,3,1,-3,-2,0,0,2
1461662324080967,0,3,5,-3,-2,-2,-1,-2
1461662324086970,-1,-2,-1,0,1,0,1,-2
1461662324086970,-3,0,-2,-1,-2,-3,-1,-2
1461662324103972,2,-3,2,-8,-7,-3,-5,-3
1461662324103972,-2,-8,-14,-3,-6,-4,-5,-2
1461662324104972,2,0,1,6,3,1,0,0
1461662324104972,0,-3,-6,-9,-3,-3,1,0
1461662324116962,-2,-6,-5,-8,0,-1,1,0
1461662324116962,-1,-2,6,8,-3,-3,-2,-3
1461662324125967,-1,5,6,4,0,0,-2,-1
1461662324125967,-4,-7,-7,-12,-4,-2,1,-3
1461662324140992,3,-1,2,3,-1,-2,0,-2
1461662324140992,-3,-2,4,-3,1,-1,1,-1
1461662324147021,-2,-7,-6,3,1,-2,-4,-1
1461662324147021,0,4,2,-4,0,0,-3,1
1461662324164035,-1,-1,-3,-1,-1,-1,-2,0
1461662324164035,2,0,-12,1,1,-1,0,1
1461662324164996,-1,-2,4,-2,-1,-1,0,-2
1461662324164996,0,0,-3,-1,-3,0,0,-1
1461662324177020,2,8,0,4,1,-2,0,-2
1461662324177020,-1,-1,-1,-1,0,-1,-3,-3
1461662324186040,-4,1,5,0,-3,-3,-2,-2
1461662324186040,-3,-3,-10,-4,-1,-4,0,-1
1461662324201022,2,0,-1,5,-2,0,0,-1
1461662324201022,-3,2,-3,-1,2,2,1,2
1461662324207054,-5,-1,5,-20,-12,-1,-4,-1
1461662324207054,-2,1,-1,7,5,2,0,0
1461662324224066,-1,-5,1,12,2,-1,-2,-2
1461662324224066,-4,-7,-6,3,3,-2,-2,0
1461662324225046,1,0,-3,-5,-4,-4,0,0
1461662324225046,0,5,10,-6,-6,-3,-1,-2
1461662324237048,-1,-4,-6,-12,-5,-2,-2,1
1461662324237048,1,-1,2,-1,-1,-1,-2,-1
1461662324246067,-8,-5,-5,2,4,2,-1,0
1461662324246067,-2,4,-2,-3,-4,-4,-3,-1
1461662324261080,3,2,4,6,6,1,0,2
1461662324261080,3,-3,0,-1,-2,-3,-1,0
1461662324267071,-2,-1,-3,6,2,0,3,0
1461662324267071,-5,-4,1,-1,-2,0,-1,-3
1461662324284096,-3,0,-4,-13,-5,-3,0,-3
1461662324284096,-1,-1,2,-2,-1,0,-2,0
1461662324285093,2,-4,-1,4,6,2,-3,3
1461662324285093,1,-4,-5,0,-4,0,-1,0
1461662324297103,2,1,1,2,6,5,1,0
1461662324297103,3,2,5,13,2,3,-2,-2
1461662324306094,-5,-8,-8,-6,-2,-4,-3,-4
1461662324306094,-6,4,12,15,0,-1,0,-2
1461662324321122,-3,-2,-2,-6,-6,-3,-1,2
1461662324321122,2,6,0,-13,-1,-1,1,0
1461662324327168,6,17,4,14,9,3,3,-1
1461662324327168,1,-11,-5,-10,-2,-2,2,0
1461662324344165,-7,-7,-5,1,-1,-6,-1,1
1461662324344165,-2,0,0,-1,-1,-3,-7,0
1461662324345136,-1,-1,-6,-7,-4,-3,-2,-2
1461662324345136,-4,-2,-2,-5,-4,0,0,-1
1461662324357143,0,2,-3,-4,1,0,-3,-3
1461662324357143,-8,-5,-5,-10,-8,-1,-3,-6
1461662324367141,0,-2,13,19,9,2,-3,-1
1461662324367141,-6,-9,-16,0,-2,-1,1,-1
1461662324380205,3,0,6,11,12,5,8,5
1461662324380205,2,-10,1,-10,-8,-1,10,3
1461662324387210,-7,1,-5,11,1,0,-10,-1
1461662324387210,7,11,-4,-3,3,3,15,-1
1461662324404166,2,6,25,-12,-6,-1,-7,2
1461662324404166,-2,5,-8,20,6,-2,-20,-8
1461662324405167,-3,-32,-14,-13,-10,-9,-14,-3
1461662324405167,-3,-2,-4,3,-1,-2,1,-3
1461662324417175,-5,0,-14,-9,-6,1,17,-1
1461662324417175,7,7,7,0,-3,1,7,4
1461662324432204,3,2,2,-5,-7,-1,-2,0
1461662324432204,0,4,-8,-3,-1,-4,-12,0
1461662324440193,-2,-5,-9,0,-5,-3,10,-2
1461662324440193,-3,-7,5,2,2,1,-7,0
1461662324447194,0,6,0,-6,1,0,13,-3
1461662324447194,-1,-2,-8,-19,-7,-1,-12,1
1461662324464223,-7,-8,10,9,1,-3,-8,-7
1461662324464223,2,12,3,-5,-1,-1,2,2
1461662324465208,1,5,-2,1,-5,-1,7,1
1461662324465208,6,0,3,-9,3,1,7,2
1461662324477271,2,-4,-15,-4,-7,0,-12,-1
1461662324477271,0,3,-2,13,7,0,5,-3
1461662324494229,-9,-16,-6,-5,-1,-6,-19,-9
1461662324494229,-1,-1,11,4,-6,-4,2,-5
1461662324500246,3,5,1,-12,-4,-2,-7,6
1461662324500246,2,3,-15,-16,-7,3,-1,-3
1461662324507256,-2,1,5,3,5,3,4,5
1461662324507256,-11,-18,-3,3,4,-4,-5,-1
1461662324523249,-3,5,2,-2,-2,-2,-2,-4
1461662324523249,-5,-10,3,-14,-7,-2,10,-3
1461662324525250,4,-8,-8,1,-1,1,7,-1
1461662324525250,-3,6,2,15,7,1,-7,-1
1461662324537265,-4,14,6,-6,0,-3,-3,-4
1461662324537265,-1,-3,-4,-5,-3,-2,13,2
1461662324546281,5,8,-2,-10,-6,-1,-11,-2
1461662324546281,-3,-27,-17,2,7,-1,-10,-3
1461662324568295,-1,9,15,12,2,5,12,0
1461662324568295,-10,-24,-15,-8,1,3,9,-5
1461662324570284,-1,10,9,-6,-3,-2,-4,-1
1461662324570284,-1,-11,-6,-5,-7,-7,-23,-3
1461662324583350,12,-2,-5,-11,1,-11,-23,3
1461662324583350,-8,2,1,13,2,-5,-3,-4
1461662324590326,2,12,8,-12,-6,10,44,4
1461662324590326,-2,6,-2,1,3,9,19,4
1461662324597360,-6,-22,-12,-6,-5,-8,-32,-11
1461662324597360,6,1,11,11,5,-6,-18,-2
1461662324606310,4,5,-8,-21,-11,-7,-11,0
1461662324606310,10,9,1,-8,-5,-1,10,3
1461662324620332,-34,-35,-13,-24,-12,3,14,-11
1461662324620332,-8,-7,10,11,-6,-5,-12,-6
1461662324627353,0,-22,-17,5,6,1,3,7
1461662324627353,-2,21,17,34,1,1,9,6
1461662324651339,0,-5,-7,-14,0,9,29,11
1461662324651339,-5,2,3,18,4,-6,-32,-12
1461662324652352,2,32,7,0,-1,-9,-24,-9
1461662324652352,8,0,-1,-41,-11,1,-7,-8
1461662324657344,4,35,10,36,4,1,12,8
1461662324657344,6,-13,-24,-20,1,-1,18,6
1461662324666349,4,-2,2,-4,-2,2,-20,-2
1461662324666349,-13,8,12,20,8,14,73,6
1461662324680383,4,15,4,-4,-1,-11,-66,-12
1461662324680383,9,-26,15,26,5,-9,-7,2
1461662324687389,8,17,-10,-15,5,-8,-41,0
1461662324687389,-10,-43,-11,11,4,0,-9,-9
1461662324703377,3,0,-3,-25,-5,9,38,6
1461662324703377,3,16,1,-2,-12,-5,-6,2
1461662324710382,-23,-47,9,46,19,6,19,-12
1461662324710382,1,11,3,-32,-21,5,0,2
1461662324726392,19,0,-8,46,30,10,23,1
1461662324726392,-22,1,-12,-21,-6,-4,9,0
1461662324733431,1,43,6,-19,-3,7,18,3
1461662324733431,-1,-11,-3,-48,-18,0,-34,-9
1461662324740440,-8,-24,-18,59,8,-9,-22,3
1461662324740440,6,33,-6,-9,-13,-33,-57,-4
1461662324747445,-6,-22,-6,-21,-25,-11,13,0
1461662324747445,12,11,16,56,25,0,21,13
1461662324763421,2,22,6,-45,-14,11,10,-1
1461662324763421,9,-8,2,8,14,22,46,6
1461662324769425,-19,-11,0,23,1,8,2,-1
1461662324769425,3,5,-23,-64,-17,-15,-27,-9
1461662324786447,9,-5,2,32,4,4,-1,-6
1461662324786447,-7,-22,6,-5,1,5,-23,-20
1461662324787461,14,-4,1,36,14,2,47,4
1461662324787461,-38,-68,-24,-17,-16,-12,-27,1
1461662324799457,-12,-5,-12,-51,-17,-27,-27,-12
1461662324799457,6,16,40,42,24,24,95,19
1461662324809463,15,-27,-22,-44,-9,10,-62,-1
1461662324809463,10,57,20,47,22,-17,-30,-10
1461662324823461,-8,-61,-33,-63,-25,1,24,8
1461662324823461,4,16,30,38,3,-7,-54,-21
1461662324829465,-26,-24,-32,-50,-12,-16,2,-12
1461662324829465,13,28,11,57,34,20,48,30
1461662324846477,-8,9,12,14,6,-1,3,-1
1461662324846477,0,-71,-13,-21,-3,10,27,13
1461662324847478,12,42,-2,-4,-15,3,-7,-13
1461662324847478,-4,-44,-28,-35,-13,-10,-36,-18
1461662324859525,2,11,43,-9,-11,-6,-46,-15
1461662324859525,-10,0,-46,-24,-13,3,32,11
1461662324868506,-1,3,10,91,43,1,-9,10
1461662324868506,-6,56,7,-8,-6,3,6,-8
1461662324883519,11,41,22,-14,-5,16,42,13
1461662324883519,16,18,-38,-54,-27,-5,20,10
1461662324889614,-6,-24,-4,-24,-12,-17,-43,2
1461662324889614,-9,-37,4,52,12,-2,60,5
1461662324906572,-7,25,-29,-17,-10,-3,-72,-11
1461662324906572,-3,63,13,10,18,-14,-38,-21
1461662324907573,-15,53,5,21,6,2,11,-6
1461662324907573,8,47,23,-31,-19,9,14,8
1461662324934589,-4,43,-3,25,-3,7,40,-9
1461662324934589,-11,-3,-5,-2,0,-13,-43,0
1461662324943595,11,66,-42,-26,4,0,2,0
1461662324943595,-6,26,22,-13,1,1,-7,-3
1461662324967613,-7,-35,-14,7,2,-3,-23,4
1461662324967613,-6,29,-9,-23,-26,-32,-37,-10
1461662324969614,8,-51,32,-79,-42,-21,-41,-21
1461662324969614,1,-31,-7,-9,2,50,77,38
1461662324988684,3,20,26,88,71,-1,-42,-1
1461662324988684,8,59,-15,1,-5,-22,-27,-1
1461662324990658,-11,43,15,8,1,-2,-9,1
1461662324990658,14,-3,-17,-54,-25,-10,-5,-26
1461662325010642,0,-36,9,-1,7,25,63,10
1461662325010642,13,-55,32,30,27,20,-10,4
1461662325017648,0,-31,-10,-14,0,2,54,8
1461662325017648,-27,43,-4,77,32,5,-44,-9
1461662325041702,-16,-92,15,-6,-7,1,35,-11
1461662325041702,-1,-99,-21,-78,-44,2,55,3
1461662325042667,30,-68,52,60,46,-7,-50,2
1461662325042667,10,-8,17,-13,-17,-60,-34,19
1461662325064741,5,-41,-95,-85,-37,7,-12,-6
1461662325064741,9,1,32,13,-7,10,-3,-3
1461662325065709,4,-17,-17,60,10,-27,-41,-9
1461662325065709,-17,19,-5,4,7,-12,-42,-18
1461662325085695,-23,13,29,-90,-30,-11,11,-7
1461662325085695,3,-3,-24,72,49,41,36,9
1461662325087697,11,36,21,-8,-5,19,39,4
1461662325087697,-6,17,-20,-69,-36,-7,-20,-8
1461662325107726,11,-36,6,86,42,-2,-11,23
1461662325107726,7,-47,23,-34,-1,9,10,12
1461662325114775,-21,-5,0,32,3,5,15,6
1461662325114775,-17,10,-26,-39,-28,-10,1,-9
1461662325153744,-6,57,-16,-65,-22,7,60,-2
1461662325153744,-21,3,17,81,51,34,-50,-6
1461662325155746,20,16,-4,30,6,-67,-75,-10
1461662325155746,8,2,2,-30,-11,-15,-27,-21
1461662325161749,-31,45,56,-26,-33,34,27,19
1461662325161749,-5,-12,-52,59,28,-68,-100,-27
1461662325162754,-8,-11,18,-61,-22,13,60,1
1461662325162754,3,-2,-10,49,42,46,-6,-22
1461662325182781,9,42,3,-41,-41,-84,-57,16
1461662325182781,-14,-4,4,-9,-22,20,64,10
1461662325189786,6,-19,-14,-87,-22,25,27,10
1461662325189786,-8,10,-22,30,6,-8,11,4
1461662325204791,4,29,4,36,43,32,12,-12
1461662325204791,0,-22,-6,-35,-9,5,8,-2
1461662325215826,39,-1,-73,-71,-56,-12,-21,-1
1461662325215826,-46,-18,38,97,70,23,18,4
1461662325235840,-6,10,5,-13,-4,14,82,14
1461662325235840,2,-15,26,-6,5,-1,-66,-20
1461662325237802,-9,-3,-4,-45,-15,-8,-24,7
1461662325237802,11,-7,-9,-61,-32,22,95,23
1461662325257816,20,6,1,72,17,-11,-16,9
1461662325257816,7,2,9,-33,-21,-20,8,18
1461662325266829,-3,-2,2,13,18,-4,-83,-27
1461662325266829,1,0,-6,-39,-47,-91,-83,-8
1461662325288869,-32,8,-7,47,2,-14,-31,19
1461662325288869,9,-6,-20,-39,-20,-17,5,-25
1461662325290841,-11,-8,33,-7,10,46,50,-1
1461662325290841,-27,-5,16,-43,-8,5,-29,-27
1461662325295862,7,3,7,82,58,19,33,-4
1461662325295862,24,-3,-7,-50,-25,16,44,20
1461662325295862,2,-9,22,63,25,13,21,0
1461662325295862,14,7,-12,-19,-11,-2,-1,7
1461662325303867,-7,7,-2,-110,-45,-13,-36,-14
1461662325303867,-8,-9,-16,77,43,16,7,5
1461662325304867,11,-7,1,33,14,3,68,15
1461662325304867,-13,1,21,2,10,31,20,-18
1461662325318860,-21,2,-9,-21,-16,-16,-62,-23
1461662325318860,-17,-4,-14,-15,-19,-12,33,40
1461662325319860,19,-4,7,-19,-7,7,43,-22
1461662325319860,8,9,7,19,5,-37,-72,17
1461662325320861,12,9,-14,28,9,-7,-35,3
1461662325320861,21,-4,9,-115,-45,10,55,-7
1461662325321876,-7,-6,2,95,11,21,29,8
1461662325321876,-19,-8,-29,-30,-15,-15,-38,-5
1461662325325904,-21,3,42,90,47,-3,17,-11
1461662325325904,24,-8,16,-118,-57,-5,-16,5
1461662325327880,-7,3,-18,102,106,49,38,10
1461662325327880,8,7,-21,-20,34,29,9,-19
1461662325332909,7,6,-9,-26,-13,-10,-24,3
1461662325332909,-19,-5,3,-23,-3,-1,-1,-15
1461662325333870,1,-3,-23,-55,-51,-19,-21,-7
1461662325333870,5,5,8,4,-15,4,57,20
1461662325339913,-28,-8,-30,-30,-8,27,-6,-39
1461662325339913,30,-9,19,51,18,-11,-22,-1
1461662325348881,35,8,11,-24,-19,-35,-45,38
1461662325348881,5,3,15,33,21,16,0,10
1461662325362931,1,7,-35,-25,-16,-11,32,-7
1461662325362931,-21,-5,-32,-31,-25,-50,-121,-27
1461662325369908,-29,2,0,36,12,-14,-27,-10
1461662325369908,10,6,-2,-2,-17,1,45,19
1461662325385966,-6,-1,11,-61,-22,19,37,2
1461662325385966,8,-10,-5,-39,4,13,31,3
1461662325387910,20,4,18,39,31,5,18,11
1461662325387910,-13,-2,22,89,30,16,4,-16
1461662325399976,12,14,-16,11,8,3,-5,-1
1461662325399976,-30,-13,-16,-38,-20,-9,-7,2
1461662325408923,12,-6,-32,-38,-9,6,-1,2
1461662325408923,-24,12,8,-11,11,36,92,9
1461662325422934,-14,7,-5,11,-4,-15,-98,-52
1461662325422934,30,-13,20,46,3,-43,-84,31
1461662325429996,48,-1,1,-41,-38,-37,-36,7
1461662325429996,17,13,-3,2,1,16,-1,4
1461662325461020,-32,9,12,8,8,7,64,20
1461662325461020,1,-15,1,21,12,33,65,-7
1461662325462995,18,-5,-5,-27,-14,8,-28,-22
1461662325462995,-5,7,-27,-81,-38,-34,-46,-8
1461662325482034,-42,14,15,-25,-21,-3,-2,1
1461662325482034,14,-20,22,87,54,18,18,-1
1461662325492996,23,-5,-2,-1,11,8,34,19
1461662325492996,-13,10,-31,-34,-11,-6,-15,-17
1461662325514056,-29,4,-14,-10,-11,-10,-25,-10
1461662325514056,21,-13,9,6,-3,-2,15,16
1461662325514998,16,-2,16,-7,3,5,12,-1
1461662325514998,-13,1,6,1,-4,-11,-14,-16
1461662325535022,-38,-8,-6,0,-9,-25,-24,-7
1461662325535022,24,-4,-2,13,3,-28,24,15
1461662325544020,8,-5,-6,-29,-7,45,42,-10
1461662325544020,-34,6,6,8,0,29,-50,-8
1461662325574052,0,7,7,25,10,-17,-31,15
1461662325574052,11,10,-11,2,1,3,-3,3
1461662325577054,8,11,1,-19,-12,-7,7,-4
1461662325577054,-3,-14,-8,4,-3,-23,-5,-4
1461662325596114,15,-24,-4,-32,-11,9,16,6
1461662325596114,-23,10,-11,-1,-10,-9,-11,-13
1461662325598089,-13,0,20,-5,3,-4,0,-1
1461662325598089,10,-108,2,56,41,9,4,8
1461662325604073,4,-6,-5,7,15,-4,-7,3
1461662325604073,-5,99,-9,-26,-21,2,-1,-13
1461662325604073,-8,31,0,-9,-10,-7,-4,-3
1461662325604073,19,14,11,-3,-6,-3,-1,-1
1461662325605063,34,-91,-1,6,5,-12,-1,3
1461662325605063,-7,51,-1,12,9,17,8,-2
1461662325611066,-55,-31,-7,-7,-11,-4,-11,-13
1461662325611066,0,-37,-2,-14,-9,-3,-5,-10
1461662325618071,30,-29,-2,8,5,-15,-12,5
1461662325618071,-31,-83,3,8,5,38,26,-2
1461662325619073,-26,64,-5,-15,-11,-27,-38,-10
1461662325619073,24,-33,-8,-40,-22,10,18,0
1461662325625095,6,-19,16,10,-8,-15,19,2
1461662325625095,-9,38,10,56,45,22,-33,-11
1461662325632100,-36,-40,7,3,-6,-9,37,8
1461662325632100,19,-69,-8,-7,-4,-16,-9,6
1461662325649152,36,-42,3,-22,-6,15,-19,8
1461662325649152,-11,66,-17,-16,-2,-4,33,-3
1461662325650095,-20,29,-4,17,12,11,23,3
1461662325650095,11,26,3,1,-6,-9,8,12
1461662325672122,29,46,11,3,-2,3,-1,5
1461662325672122,-17,51,-2,-6,-9,-25,-45,-19
1461662325673111,-14,52,-2,-8,-2,16,3,-5
1461662325673111,-2,34,8,10,3,-15,-17,2
1461662325686121,30,7,-11,4,6,-7,5,9
1461662325686121,7,39,3,-7,-1,6,-13,-14
1461662325692182,-61,3,-2,-9,-4,-5,4,-4
1461662325692182,10,46,4,11,2,-6,-9,9
1461662325709135,-6,-32,-14,5,10,4,-22,-3
1461662325709135,2,61,-6,-10,-9,3,41,-10
1461662325710136,-5,7,-5,-10,-13,-27,-21,-2
1461662325710136,2,35,-4,-2,1,13,5,6
1461662325723150,18,-62,9,-10,4,13,10,6
1461662325723150,2,-128,6,36,11,-11,1,-1
1461662325730175,-8,-73,6,-16,-5,1,-16,-3
1461662325730175,-3,-128,11,16,1,-12,-8,1
1461662325745220,18,54,-1,-21,-6,1,15,-3
1461662325745220,-18,112,6,-2,4,13,-4,-1
1461662325760174,-6,127,3,7,2,-6,-7,-4
1461662325760174,4,124,2,1,2,-7,-8,-2
1461662325769177,9,94,-6,7,-3,3,6,1
1461662325769177,-12,21,-27,-16,-14,4,7,-4
1461662325770182,-2,70,-4,-1,-5,-19,-13,-5
1461662325770182,7,28,11,-4,2,48,15,7
1461662325783212,-1,-11,-4,12,2,1,8,1
1461662325783212,-3,-17,-1,-3,-3,-3,3,9
1461662325790217,-5,-43,-25,-10,-9,-14,-13,-19
1461662325790217,4,-57,14,4,1,-5,-4,7
1461662325805216,2,2,-25,6,3,-1,4,-1
1461662325805216,-1,34,4,-13,-9,-6,-10,0
1461662325812208,-1,14,21,6,2,11,3,3
1461662325812208,1,41,-7,3,1,-13,-2,-1
1461662325828232,1,-32,1,4,6,5,2,2
1461662325828232,1,-52,-4,-17,-7,-7,-6,-6
1461662325830221,-7,-80,7,6,0,6,0,2
1461662325830221,-7,-54,-3,1,2,-5,-3,-4
1461662325842230,10,16,-4,3,-1,2,5,2
1461662325842230,-11,9,-33,-17,-6,-3,-1,-9
1461662325851236,2,61,19,-4,-6,2,-4,0
1461662325851236,7,71,16,2,3,4,2,3
1461662325887300,-7,69,-11,3,1,0,-2,-5
1461662325887300,-2,68,16,-6,-4,-8,-7,-2
1461662325898300,-8,-5,-45,0,-2,5,1,0
1461662325898300,0,-27,3,-3,-2,-13,-2,-4
1461662325911337,1,-17,9,-1,-2,6,0,1
1461662325911337,4,15,8,7,3,-4,-6,-3
1461662325913337,-5,-7,-4,-3,-2,1,-1,-2
1461662325913337,-2,-11,-6,1,-4,6,0,-3
1461662325918285,1,9,4,-7,-6,-5,-3,-2
1461662325918285,-8,-39,-16,-2,-3,-6,-3,-6
1461662325919284,0,-23,-7,0,3,-3,-4,-1
1461662325919284,-2,-6,2,-3,-4,-5,-3,0
1461662325925347,0,-22,-11,-5,-1,1,3,-3
1461662325925347,-8,-10,-5,-8,-2,-1,-2,0
1461662325932352,-4,-6,-2,-2,-6,-4,-2,2
1461662325932352,-3,12,12,8,-1,-5,-3,-2
1461662325948364,-1,-11,16,2,4,6,-1,-1
1461662325948364,-2,-18,17,7,0,4,-5,-5
1461662325950305,-5,-47,-29,-7,-1,-5,-3,-5
1461662325950305,-2,0,-9,-10,-6,-1,-1,0
1461662325963345,6,26,25,6,-1,1,3,2
1461662325963345,1,-3,3,3,-2,-1,-2,0
1461662325977354,2,2,7,1,0,0,0,3
1461662325977354,-10,0,-6,4,0,-6,-6,-2
1461662325985346,1,-18,-13,4,2,2,3,-1
1461662325985346,-1,-13,16,3,-1,-2,1,-3
1461662325992351,-6,-38,-27,-2,-2,3,-4,-3
1461662325992351,1,9,-8,-2,-1,2,1,0
1461662326008362,-1,-9,-2,-5,0,-1,-1,1
1461662326008362,-1,-7,-2,3,0,-3,0,0
1461662326011362,1,13,15,4,-1,-3,-2,0
1461662326011362,3,-2,-5,0,0,-4,-2,1
1461662326023396,3,-5,-15,-10,-4,-4,-3,-1
1461662326023396,-6,-19,8,4,-2,2,-1,-3
1461662326030362,3,4,14,-3,-2,2,1,-1
1461662326030362,-3,-14,-19,-4,-3,2,1,-3
1461662326045412,4,-10,9,3,-3,-4,1,-1
1461662326045412,-2,-7,-36,-25,-9,-5,-3,-5
1461662326052391,-4,6,24,14,11,3,2,2
1461662326052391,1,-1,5,7,2,-3,-2,1
1461662326069402,5,13,2,-1,-3,-3,-3,0
1461662326069402,-3,-15,-4,-5,-8,-3,-2,-4
1461662326070403,0,-4,2,-1,-3,-6,-3,0
1461662326070403,0,11,1,-4,-5,1,1,1
1461662326083459,4,8,-2,2,-1,-3,2,-1
1461662326083459,-5,-5,1,-2,1,10,5,-2
1461662326090405,-2,-5,-8,-6,-3,-8,-2,-2
1461662326090405,2,3,-8,-4,1,-6,-2,0
1461662326105428,-9,-12,-1,0,1,0,-1,-1
1461662326105428,4,3,2,3,2,10,-5,1
1461662326112481,-4,-5,-8,-3,-4,2,2,-2
1461662326112481,2,-1,1,-11,-3,-3,-2,0
1461662326128490,-3,-3,-5,8,4,-1,-2,-2
1461662326128490,1,3,2,-6,-3,-5,-2,-3
1461662326130437,-1,12,17,14,7,4,0,2
1461662326130437,-4,-10,-6,-5,-1,0,-2,-3
1461662326151450,4,4,5,-7,-4,-1,0,-1
1461662326151450,-2,-7,-12,-11,-6,-6,-4,-3
1461662326152452,2,5,5,5,0,1,-1,-1
1461662326152452,0,-10,-3,6,3,2,2,1
1461662326165516,-13,-5,2,3,1,0,-2,-2
1461662326165516,-4,-6,0,5,1,-3,-1,-1
1461662326173464,-1,-1,-5,-17,-9,-1,-1,0
1461662326173464,4,3,-2,-4,-2,-4,-3,2
1461662326188533,1,0,1,0,-3,-4,-2,0
1461662326188533,-1,-4,-10,1,-2,1,3,2
1461662326190482,-6,-10,-6,-4,1,6,1,-4
1461662326190482,1,2,2,3,1,-2,-1,-2
1461662326202497,4,-1,-2,-2,1,0,-3,0
1461662326202497,3,12,9,7,1,-6,-2,-1
1461662326211491,-4,-7,-5,-1,-5,0,0,2
1461662326211491,-7,-8,-7,-1,0,-2,-2,-2
1461662326225650,-3,-1,10,0,-4,-3,1,0
1461662326225650,1,4,4,10,6,3,0,0
1461662326232655,3,0,-6,-8,-3,-4,0,-3
1461662326232655,-2,4,2,3,1,0,0,-3
1461662326248609,-5,-9,-2,-16,-11,-2,-1,-4
1461662326248609,6,-4,5,6,9,2,2,3
1461662326254611,-8,-3,-14,-9,-3,0,-2,-2
1461662326254611,-1,8,6,-2,-2,0,-1,-2
1461662326262637,4,3,3,1,-1,0,-1,1
1461662326262637,-3,-4,-3,-3,-8,-2,-2,-2
1461662326271623,-2,3,5,1,0,-2,-1,1
1461662326271623,-2,7,3,-2,0,-6,-2,1
1461662326285692,6,7,-9,2,0,-1,-2,-2
1461662326285692,-2,-3,5,-2,0,-2,-4,-3
1461662326292697,1,0,-2,2,0,3,1,-1
1461662326292697,-8,-9,-1,-2,-3,-1,0,-2
1461662326308708,2,2,0,4,2,0,0,0
1461662326308708,-4,3,0,0,-1,-4,-2,-1
1461662326311684,-1,-4,0,-3,0,-1,-2,-1
1461662326311684,3,6,3,-1,-4,0,2,-1
1461662326322672,-5,-7,-7,-6,-4,-4,-3,-4
1461662326322672,3,2,-6,-7,0,8,1,-3
1461662326331697,-3,3,2,4,-1,-3,-1,-1
1461662326331697,-4,-14,-4,7,6,4,0,1
1461662326345735,1,-6,-4,1,2,5,1,2
1461662326345735,-1,0,-2,-4,-4,-9,-2,1
1461662326352681,-3,2,2,-7,-1,2,-1,1
1461662326352681,0,1,-2,-1,-4,-5,-2,0
1461662326368692,0,-4,-4,-3,-2,0,-2,-3
1461662326368692,-1,-2,-5,-3,-1,2,-3,-1
1461662326370693,1,2,4,11,1,-4,-3,0
1461662326370693,5,18,6,-6,-1,-1,-1,-1
1461662326382762,0,-15,-6,9,1,2,1,-1
1461662326382762,-6,-19,-8,-5,-3,-2,-1,-4
1461662326391712,-1,-8,-8,7,5,-2,0,-2
1461662326391712,1,-9,-4,-4,-3,-1,-1,0
1461662326405731,3,11,5,2,0,-1,0,1
1461662326405731,1,2,1,2,-2,-4,0,-2
1461662326412771,-3,-4,1,-4,-3,-1,-2,-3
1461662326412771,0,4,0,-2,-2,1,-2,0
1461662326428842,2,5,-2,-4,-1,-3,-4,0
1461662326428842,-5,-5,-1,-1,-2,-3,-2,0
1461662326430786,-1,-3,1,-6,-1,-4,-1,0
1461662326430786,2,-2,-2,1,0,1,3,-2
1461662326442820,-5,-12,-5,-2,-1,0,0,-1
1461662326442820,0,11,2,2,-1,-3,-2,-2
1461662326451802,-2,1,3,1,0,1,-1,-1
1461662326451802,-1,-6,-2,-6,-1,-3,-2,-2
1461662326465835,-2,1,-4,1,-2,-4,0,0
1461662326465835,-1,1,0,0,1,3,1,0
1461662326472816,-8,-4,-1,4,4,2,3,0
1461662326472816,-2,1,3,2,2,-2,-2,0
1461662326487851,2,4,7,0,-1,0,-2,0
1461662326487851,0,-2,-4,-1,1,-1,-2,1
1461662326494845,4,6,-1,-3,-3,0,-1,1
1461662326494845,-5,-15,-5,-1,0,-1,0,-3
1461662326502838,-3,-5,-11,-7,-1,-4,-1,-2
1461662326502838,2,-6,2,2,-2,-3,-3,-2
1461662326511857,4,13,8,-1,-3,-1,-1,0
1461662326511857,-3,-11,-2,-1,-1,1,-1,-2
1461662326525891,-1,-2,-7,-2,0,-1,-1,-1
1461662326525891,0,-7,3,-1,-3,-1,-1,-2
1461662326531896,-1,-2,-6,-3,-3,-1,-2,0
1461662326531896,6,17,0,0,-2,-2,1,1
1461662326547907,1,-6,3,-2,1,3,0,-4
1461662326547907,0,2,-2,0,1,-2,-1,-1
1461662326554902,-1,-7,-8,-2,0,-1,-3,-1
1461662326554902,0,12,0,0,0,0,1,1
1461662326562880,-2,-5,7,-3,0,-1,0,2
1461662326562880,-2,5,3,-6,-6,-3,-3,-2
1461662326571886,-5,-7,-6,2,4,1,-1,-2
1461662326571886,-1,-1,1,-1,-2,-1,-1,-1
1461662326593916,-4,4,5,1,1,-1,1,0
1461662326593916,1,-6,-12,-2,1,-2,-1,1
1461662326594904,-3,-1,17,2,4,3,-1,-1
1461662326594904,-6,-3,2,9,3,0,-1,-1
1461662326607927,4,12,1,-1,-1,0,-1,-2
1461662326607927,-1,1,1,-6,-2,-1,0,-1
1461662326632987,-2,-6,-13,-8,-5,-4,-1,-2
1461662326632987,-1,-13,-8,-1,-3,-1,0,1
1461662326632987,-5,-9,0,1,-4,-6,-3,-2
1461662326632987,2,-2,-3,4,-1,-3,-3,-1
1461662326634930,1,-2,1,4,-4,1,1,0
1461662326634930,3,4,2,-3,1,-1,-5,-2
1461662326645996,1,4,-1,-1,-2,2,-1,-2
1461662326645996,-2,4,-9,0,-1,1,-1,-2
1461662326651955,-2,-3,4,-1,-4,-5,-1,-1
1461662326651955,-3,2,-3,6,-2,-2,-1,-2
1461662326667955,-1,-10,-3,5,0,-1,-3,0
1461662326667955,-3,3,7,7,0,-1,0,-3
1461662326682969,1,4,2,-7,-5,-2,-3,-3
1461662326682969,-1,-5,-6,-4,0,-1,0,-1
1461662326691029,3,-2,-3,1,4,0,2,-1
1461662326691029,-3,-3,7,-3,-2,-1,-2,-2
1461662326693002,-1,0,-6,-9,1,1,-1,1
1461662326693002,-3,-3,-1,-11,-2,-1,-3,1
1461662326705992,0,2,-2,-5,1,-1,-2,-2
1461662326705992,-2,-2,-4,-12,-6,-3,-1,-1
1461662326712004,-1,-1,2,1,2,2,2,-1
1461662326712004,4,15,18,13,6,3,1,1
1461662326728054,-4,-15,-6,-4,-2,-6,-1,-2
1461662326728054,-4,-5,1,4,1,4,2,1
1461662326735026,-1,2,-4,-4,-4,-2,-1,-4
1461662326735026,-4,-2,-7,-9,-5,-2,-1,-2
1461662326751014,2,3,-3,1,-4,-1,-1,1
1461662326751014,1,-1,3,-2,-1,0,-1,1
1461662326753015,-4,-7,-1,-2,-5,-4,-1,-1
1461662326753015,-3,-1,0,0,0,-1,-1,1
1461662326766049,2,2,-3,-2,0,-2,-6,-2
1461662326766049,2,3,-2,-5,-2,1,0,-1
1461662326773029,0,2,-1,3,2,2,1,2
1461662326773029,1,-1,-5,-5,-4,-1,-1,0
1461662326789039,-1,5,9,5,4,-1,0,-1
1461662326789039,1,-6,-10,-3,2,1,-2,-1
1461662326795058,-4,-2,-6,1,0,0,-2,-1
1461662326795058,3,-3,-1,-4,-4,-2,-2,-1
1461662326811070,-1,4,2,-17,-12,-1,-2,-2
1461662326811070,0,3,3,20,10,0,0,-1
1461662326813072,-6,-6,-4,3,1,-2,0,-2
1461662326813072,0,4,-6,-7,-4,-1,0,1
1461662326826064,2,-3,-3,-1,-2,-3,1,1
1461662326826064,-4,5,-1,-3,-4,-5,-1,-3
1461662326832083,2,8,6,-2,-1,-1,-1,-2
1461662326832083,-1,-1,-2,9,4,2,2,1
1461662326848092,-10,-18,-3,4,-2,1,0,-1
1461662326848092,-1,-1,-4,-2,-3,1,-2,-2
1461662326855085,-6,-1,17,1,-2,-4,-1,-2
1461662326855085,2,6,6,1,0,0,-1,-2
1461662326871096,3,-2,-8,-1,-1,-1,2,-1
1461662326871096,-5,-10,-7,-2,-1,-2,-1,-3
1461662326873098,-2,0,-5,1,-2,2,1,-1
1461662326873098,-2,-7,4,-2,1,-2,-1,-2
1461662326885121,-1,11,-3,-3,-1,-4,-3,-2
1461662326885121,1,-3,-4,-7,-2,-2,-2,-1
1461662326892150,0,3,13,22,7,2,1,-1
1461662326892150,-5,-4,-7,-4,-3,-2,-2,-4
1461662326908135,0,-3,-3,1,0,0,-2,-3
1461662326908135,-1,3,1,-5,-6,-4,-1,-1
1461662326915167,-1,-2,-2,-16,-6,-1,-2,3
1461662326915167,1,-1,0,15,4,1,1,2
1461662326931198,-2,-1,-4,2,4,1,0,0
1461662326931198,1,2,9,-5,-5,-6,-4,-2
1461662326933199,-3,-2,-18,-4,-2,0,1,0
1461662326933199,-2,5,12,-5,-4,0,0,0
1461662326946152,1,-10,-6,-7,-4,-1,0,-1
1461662326946152,1,1,4,2,0,3,-1,0
1461662326952166,-2,-8,-10,-3,-1,-4,-3,0
1461662326952166,-3,-7,-6,-5,-3,-4,1,-2
1461662326968166,1,1,2,2,-1,0,-1,1
1461662326968166,-3,-11,-5,-2,0,0,0,1
1461662326975183,-2,-4,1,-2,-2,-2,-1,-4
1461662326975183,0,7,-8,-8,-3,-2,-2,0
1461662326991201,1,0,-1,-1,0,-3,-1,-1
1461662326991201,-1,2,8,0,-2,-4,-3,-1
1461662326993185,-1,-3,-2,1,3,1,1,1
1461662326993185,-2,-1,3,4,4,2,-1,-3
1461662327006193,4,12,9,1,-2,-1,0,-1
1461662327006193,-4,-8,-10,-2,-4,0,-2,-2
1461662327012225,-5,2,-8,-12,-5,-3,-1,0
1461662327012225,-1,-4,2,19,3,-1,1,2
1461662327028237,1,2,3,3,0,-1,-2,-3
1461662327028237,1,7,0,2,-3,-3,-2,-3
1461662327035215,1,1,-3,-6,-2,-3,-4,-1
1461662327035215,1,-10,-5,-9,-3,-2,0,-1
1461662327051226,-1,1,0,-2,-2,2,0,-3
1461662327051226,-2,2,1,-1,1,-3,-1,0
1461662327053227,0,-4,-6,1,-2,0,-2,1
1461662327053227,-2,-2,-5,-7,-3,1,0,0
1461662327065254,-2,-3,0,-1,-6,-6,-3,-4
1461662327065254,1,-5,-5,-5,-1,0,0,-2
1461662327072243,-1,-3,4,4,1,0,2,-2
1461662327072243,1,15,1,-8,0,-1,-3,3
1461662327088254,-5,-4,-3,-3,1,1,0,0
1461662327088254,-4,-8,-7,-3,-2,-1,0,-3
1461662327095314,-1,-3,6,3,-3,-2,-2,-3
1461662327095314,-2,-11,-11,-7,-3,-3,-1,-2
1461662327110325,0,0,-5,12,4,0,-1,-2
1461662327110325,-2,-1,11,6,1,-2,-3,-1
1461662327119273,-2,1,2,3,-2,1,2,-1
1461662327119273,3,-1,-10,-10,-6,-2,-2,0
1461662327125306,2,-10,-7,-5,-4,-3,-4,-2
1461662327125306,3,1,-2,7,4,1,0,0
1461662327134284,-5,3,1,0,1,-1,-3,-1
1461662327134284,5,0,8,0,-3,-3,-1,-2
1461662327148301,-1,-3,-3,-5,-2,2,-1,-3
1461662327148301,-3,6,3,3,0,0,2,-1
1461662327155327,0,0,-6,-7,-5,-1,0,-1
1461662327155327,0,2,2,4,3,0,0,0
1461662327179315,2,-1,-4,-5,0,-1,0,-1
1461662327179315,-4,-1,-7,-12,-4,-2,-1,-2
1461662327180346,0,6,-1,1,2,-3,-2,-3
1461662327180346,-3,-6,1,5,1,0,-2,-1
1461662327185321,5,8,7,-2,3,4,-1,0
1461662327185321,-6,-6,-2,-1,-1,1,-2,-1
1461662327194327,-3,-4,3,1,0,1,0,-2
1461662327194327,1,2,1,-3,-2,-4,0,1
1461662327208364,0,-6,-20,0,-4,-4,-2,2
1461662327208364,2,-2,1,-5,-4,-1,0,0
1461662327215340,-4,1,5,-5,0,0,-1,0
1461662327215340,0,-4,-4,-1,1,-2,-1,-2
1461662327231360,-3,-6,-1,-2,-4,-3,-1,-1
1461662327231360,0,1,-8,-1,0,-1,-2,-1
1461662327233355,0,0,1,3,-1,-1,-1,-1
1461662327233355,-3,1,1,0,1,2,-1,-3
1461662327245418,0,1,1,-1,-4,-5,-1,-2
1461662327245418,0,1,-3,-2,-3,3,0,-2
1461662327261374,-1,-5,3,4,5,-3,2,0
1461662327261374,1,-1,-1,1,-2,-1,-1,1
1461662327268379,-1,-5,-5,-4,-2,0,-2,1
1461662327268379,0,2,4,10,2,-2,-2,-2
1461662327275383,-2,-5,-9,-7,-7,-1,-1,0
1461662327275383,-3,3,-1,7,4,-2,0,-2
1461662327291423,-2,1,0,-8,-4,-4,0,-2
1461662327291423,1,10,5,0,-1,-2,0,0
1461662327293396,-3,-15,-1,-1,1,-1,0,-2
1461662327293396,2,-3,5,4,3,-1,-2,-1
1461662327305403,-1,1,0,-1,-2,0,-1,-2
1461662327305403,0,-1,-11,-13,-5,-4,-1,0
1461662327314412,0,6,6,8,-1,-1,-1,0
1461662327314412,-1,4,-6,-4,-3,-1,-2,1
1461662327328460,-1,-2,4,0,-1,1,-1,-1
1461662327328460,-2,-4,-2,-5,0,1,1,1
1461662327335427,-4,0,-1,-4,-1,1,-1,-2
1461662327335427,0,5,-1,-3,-4,-1,-1,-3
1461662327351439,0,4,4,1,-1,-2,-3,-2
1461662327351439,-4,-5,-3,-1,0,-3,0,-2
1461662327352452,2,3,-2,2,1,0,1,0
1461662327352452,-4,-3,7,-3,-4,0,0,0
1461662327365447,-4,-8,-9,-5,0,-1,-1,-1
1461662327365447,-2,-2,1,5,0,-3,0,0
1461662327374454,-5,3,1,-1,3,0,-2,0
1461662327374454,0,-7,-6,-5,-2,1,0,-1
1461662327396528,-3,-2,3,5,1,0,-1,-2
1461662327396528,-2,3,3,4,1,2,-1,-1
1461662327398472,4,3,0,8,1,-1,0,-1
1461662327398472,-1,-2,9,5,-2,-3,-2,-2
1461662327410493,0,-1,-9,-5,0,-1,-1,-2
1461662327410493,-2,-5,3,-1,2,-1,-3,0
1461662327417485,1,2,0,-3,-3,0,1,2
1461662327417485,-1,-1,-4,-5,1,1,0,2
1461662327424505,0,-1,8,8,-2,-1,-1,-1
1461662327424505,-2,2,-1,-3,-3,-3,-2,-1
1461662327433556,1,2,-1,-5,-3,0,0,0
1461662327433556,-3,-4,-5,-4,-2,-1,0,-2
1461662327448565,1,-1,-4,-4,-3,0,-2,-2
1461662327448565,2,-4,-4,0,-2,-1,-2,-2
1461662327454527,-3,2,0,-3,-2,-2,-5,0
1461662327454527,0,-5,-8,2,0,-1,-2,3
1461662327478542,0,0,8,0,-2,0,-1,-1
1461662327478542,3,-6,-10,2,-2,-2,-1,-1
1461662327480543,-2,-1,-2,1,-3,-3,-1,-3
1461662327480543,-2,-4,-1,1,-1,0,1,-2
1461662327484532,1,-5,1,2,-2,-1,0,-2
1461662327484532,-2,-4,-1,-3,-2,-3,0,-2
1461662327493644,-3,-8,-4,0,4,0,-2,-2
1461662327493644,-1,6,3,8,2,-1,-1,-2
1461662327507650,-1,-5,-7,-4,-2,-1,-2,0
1461662327507650,-4,0,-2,-6,-1,-2,0,-2
1461662327514701,-3,-6,3,1,-4,-2,-3,-1
1461662327514701,-5,-6,-1,-10,0,1,0,0
1461662327530798,1,1,-4,-4,0,-2,-1,-3
1461662327530798,0,-1,0,-4,-1,0,-2,-1
1461662327537800,-1,-3,-8,-6,-1,-2,-5,1
1461662327537800,2,-1,0,-3,0,0,0,1
1461662327553763,0,4,-1,-1,-2,-2,-1,1
1461662327553763,-3,-6,2,-2,-1,-1,1,0
1461662327555766,0,-7,-3,-3,-1,0,1,-2
1461662327555766,2,-4,-9,-1,-3,0,-2,-2
1461662327567776,0,-1,12,-2,0,-2,-2,-2
1461662327567776,-1,8,0,-1,-4,-3,-2,-3
1461662327574779,-1,9,3,0,4,1,0,-1
1461662327574779,-1,-1,3,3,3,-1,2,2
1461662327590837,1,-1,-3,0,0,0,-3,0
1461662327590837,-3,-1,5,-3,-2,-2,-4,-1
1461662327597841,-1,-1,-6,-4,-4,-1,2,-1
1461662327597841,0,-6,2,14,3,1,-1,0
1461662327613822,3,0,-7,-3,-2,-1,1,1
1461662327613822,-4,-1,-8,2,1,1,0,-1
1461662327615797,-3,4,6,0,-2,-2,-1,0
1461662327615797,-2,-2,0,-4,-3,-2,0,-3
1461662327627833,1,-1,8,7,-3,-3,-1,-3
1461662327627833,-2,-9,-15,-3,0,-1,-1,-3
1461662327642880,0,1,2,-6,-4,-1,-1,-3
1461662327642880,3,7,4,-6,0,0,-1,2
1461662327650821,-3,-8,-17,-2,3,2,-2,-3
1461662327650821,0,-6,1,-1,2,0,-2,-2
1461662327657840,1,-2,-4,2,0,-2,-1,0
1461662327657840,2,1,-1,-3,-4,-5,-1,-1
1461662327673851,-2,1,-4,-4,-5,0,1,0
1461662327673851,-1,-7,-3,-1,1,4,-1,-1
1461662327675853,-1,10,7,1,-2,-1,-1,-3
1461662327675853,-4,-15,1,-2,0,-1,-1,-2
1461662327687906,-4,-7,-10,-7,-1,-3,-1,-2
1461662327687906,-1,6,2,8,1,-2,0,1
1461662327694911,5,6,7,-1,-9,-3,-3,1
1461662327694911,-8,-10,-11,14,9,3,0,-2
1461662327710877,2,11,2,4,2,-1,2,-1
1461662327710877,-8,-22,0,-9,-3,-3,1,-1
1461662327717883,-1,-4,-3,0,3,2,-2,-1
1461662327717883,4,5,-5,-9,-7,-3,-3,0
1461662327733943,-4,-2,7,-2,-3,-4,-4,-1
1461662327733943,0,11,3,4,1,0,1,1
1461662327735896,-4,6,-3,-6,2,2,3,-2
1461662327735896,3,6,0,-3,-3,-3,-1,-2
1461662327748949,-3,-9,-9,-3,-5,0,-3,-3
1461662327748949,2,7,4,-3,-2,-3,-4,-2
1461662327754923,-5,-11,-5,1,0,-1,-1,-1
1461662327754923,2,0,-1,-2,-3,1,1,-1
1461662327770934,-4,4,4,1,2,-2,-2,-1
1461662327770934,-1,-1,8,3,1,-2,2,-1
1461662327778912,-2,-1,-8,2,2,0,0,0
1461662327778912,-3,-4,-4,-8,-7,-3,-1,-2
1461662327793938,5,6,-5,-8,-3,-1,-1,1
1461662327793938,-3,-3,16,15,0,-2,-3,-2
1461662327794938,0,-1,0,-3,3,1,2,1
1461662327794938,1,0,1,-2,-3,-1,-3,-1
1461662327807947,2,-3,-4,2,0,-1,-3,-1
1461662327807947,-7,-5,-11,-5,-3,0,-1,0
1461662327814937,0,8,-8,-1,-3,-2,-3,-2
1461662327814937,-1,-2,2,-4,-2,-1,0,-1
1461662327830959,0,-4,0,-3,-2,-1,0,-2
1461662327830959,0,1,-3,-1,-1,0,0,-4
1461662327836968,-2,-3,-2,0,-1,-2,1,-1
1461662327836968,-2,2,-4,-4,-3,-1,1,0
1461662327853975,-5,-11,-1,0,0,-2,-4,-4
1461662327853975,-2,-7,-7,3,0,-1,-3,2
1461662327854976,0,4,-2,-1,-1,2,-2,-3
1461662327854976,4,8,5,-1,2,0,-2,-1
1461662327867973,-2,-6,-2,0,-2,-3,-1,-2
1461662327867973,-4,-1,5,-15,-7,0,0,0
1461662327874990,-1,-5,-6,11,4,2,-1,0
1461662327874990,9,9,14,31,12,3,0,5
1461662327891028,-3,-5,-3,7,0,-2,-2,-5
1461662327891028,3,10,-6,-4,1,0,0,1
1461662327897053,-7,-12,-9,-15,-11,-6,-3,-4
1461662327897053,0,-1,6,2,-2,-2,1,1
1461662327914046,0,1,3,5,2,-2,-2,0
1461662327914046,2,-3,-1,-3,-1,-3,-1,-1
1461662327921012,-6,0,2,-9,-6,-2,-1,-2
1461662327921012,-4,-6,-8,-8,-4,-4,-2,-2
1461662327928075,0,0,-3,-3,-3,1,0,1
1461662327928075,0,-1,-8,-10,-4,1,-2,-1
1461662327935022,5,3,18,-1,-4,-1,1,2
1461662327935022,6,-3,2,17,9,3,2,1
1461662327951051,-7,7,1,3,3,3,-2,-3
1461662327951051,-8,-6,-4,-5,-3,-1,0,-3
1461662327957054,-2,3,-3,-4,-4,-6,-6,0
1461662327957054,-4,-15,-5,-16,-9,-1,1,2
1461662327981071,-5,-4,0,-27,-14,-5,-2,-3
1461662327981071,0,-1,-5,29,12,-1,-4,-3
1461662327983055,-1,4,16,-3,-4,1,0,-1
1461662327983055,-10,-6,-11,-19,-12,-2,-1,-6
1461662327988077,2,5,-5,8,10,3,3,1
1461662327988077,-6,-9,1,10,-1,-2,1,-2
1461662327995077,2,-1,-1,3,3,1,3,1
1461662327995077,4,14,12,-2,0,2,3,2
1461662328011105,7,-7,-10,-22,-3,1,-5,3
1461662328011105,-1,5,4,14,-3,-10,-17,-6
1461662328017138,-6,-5,-5,3,4,-5,-15,-7
1461662328017138,1,6,-9,-9,3,2,7,-2
1461662328034112,0,-25,-2,5,-2,4,13,-1
1461662328034112,-3,2,-11,-20,-8,-9,-2,0
1461662328035093,0,-13,7,9,-1,-4,-4,5
1461662328035093,6,36,-7,-29,-13,-2,20,4
1461662328048160,5,0,16,42,10,-1,-24,-6
1461662328048160,-5,-4,-8,-26,-3,-1,-8,-4
1461662328062131,0,-4,-4,24,-4,1,4,3
1461662328062131,-10,-21,-12,-17,-19,-10,-4,-7
1461662328070128,8,22,19,46,34,11,9,2
1461662328070128,0,5,17,-3,-3,9,11,2
1461662328077133,11,1,-10,10,18,5,0,0
1461662328077133,-5,-8,-13,-6,-13,-5,-3,-4
1461662328094150,7,33,-3,-9,-3,6,31,5
1461662328094150,-7,-49,-16,-16,-5,-4,-14,-6
1461662328096168,-6,-10,6,-4,-6,-2,1,8
1461662328096168,9,10,8,18,12,1,-17,3
1461662328107155,-11,-12,-16,-21,-15,-9,13,-7
1461662328107155,5,19,5,-1,6,9,-10,5
1461662328124173,-3,15,-11,-38,-14,-5,-11,-6
1461662328124173,-5,-17,-7,-4,2,-7,-17,-4
1461662328138312,-7,-4,8,4,-7,-13,-24,-12
1461662328138312,11,10,7,4,6,1,7,5
1461662328145329,-8,-9,-9,-14,-15,-6,1,-2
1461662328145329,7,-8,-3,-11,10,12,11,3
1461662328154266,5,10,16,14,1,-3,5,0
1461662328154266,-8,23,-1,22,5,6,15,-5
1461662328155267,11,30,15,-20,6,18,49,14
1461662328155267,-2,-37,-5,22,12,10,-23,6
1461662328167299,-5,-9,-5,-3,-10,-15,-44,-15
1461662328167299,4,1,-7,7,5,-10,-13,-1
1461662328176281,-13,18,12,5,1,-2,-32,-15
1461662328176281,-13,-31,-16,-11,1,1,28,-3
1461662328190291,13,0,9,-40,-23,-4,16,9
1461662328190291,5,5,-3,56,22,10,13,10
1461662328197325,-7,-10,-8,0,-4,1,33,16
1461662328197325,3,13,18,8,-2,9,24,0
1461662328213322,-3,30,-31,-15,3,-9,-29,-10
1461662328213322,6,-43,-7,-60,-38,-13,-36,-12
1461662328215310,-14,-38,-21,82,30,-11,-2,-13
1461662328215310,-9,14,4,-13,-18,-20,-19,-5
1461662328227333,9,0,7,-6,0,15,-7,2
1461662328227333,-1,-8,5,19,11,-3,12,-2
1461662328236340,-5,-15,12,-10,-2,1,-3,2
1461662328236340,0,-42,5,5,-1,-1,-2,-1
1461662328250372,-12,-44,-41,-3,6,9,59,7
1461662328250372,9,8,18,-62,-35,27,14,-2
1461662328257350,11,-12,3,12,25,4,-34,-9
1461662328257350,-4,27,-1,40,2,-47,-62,1
1461662328274362,0,20,34,15,-5,-20,-51,7
1461662328274362,9,-11,1,-19,-6,-2,23,-2
1461662328280390,-16,-7,-3,-10,1,36,65,11
1461662328280390,18,43,-6,-5,7,11,-13,-10
1461662328287399,2,-9,-11,-20,-25,-20,-36,-7
1461662328287399,-10,46,16,14,10,-9,-25,-1
1461662328302399,-8,-15,-19,7,4,-8,-3,-9
1461662328302399,-1,-24,8,4,6,14,44,1
1461662328310404,5,18,-32,-53,-12,22,13,-4
1461662328310404,-20,59,39,42,14,-20,-20,-8
1461662328317410,12,37,-5,13,-12,-31,-56,3
1461662328317410,7,19,7,5,13,2,-9,-1
1461662328333411,-14,-27,2,-16,2,22,54,9
1461662328333411,11,-60,-23,-53,-21,11,6,3
1461662328335393,-10,67,5,21,5,-9,-35,-22
1461662328335393,-26,13,-11,2,-9,-8,5,1
1461662328347466,11,42,15,56,11,2,13,9
1461662328347466,9,13,-32,13,20,25,76,7
1461662328362432,10,110,38,7,0,-3,-48,-7
1461662328362432,-10,63,-35,-89,-35,-7,32,-6
1461662328370438,27,-11,9,32,15,12,-6,17
1461662328370438,-39,109,4,25,-12,-45,-47,5
1461662328377442,16,66,2,-1,3,12,13,-10
1461662328377442,6,68,37,5,-9,4,-9,-1
1461662328393434,1,-20,-30,27,10,-20,3,13
1461662328393434,-9,-116,-42,-42,-20,-1,-1,7
1461662328400465,-9,-128,46,5,14,53,108,21
1461662328400465,-10,-128,2,11,20,4,-107,-32
1461662328407502,-5,-52,2,-9,-21,-59,-44,-12
1461662328407502,6,4,8,17,0,-18,-36,-7
1461662328416463,-12,-27,-12,-122,-53,-16,66,11
1461662328416463,17,16,17,95,48,40,63,7
1461662328430518,-4,-19,4,-39,0,17,-4,-20
1461662328430518,-10,1,-11,15,10,16,0,-14
1461662328445487,2,-3,-7,-9,-13,-40,-35,16
1461662328445487,2,0,-16,3,-4,-5,3,9
1461662328453490,-8,10,4,-17,-4,9,39,4
1461662328453490,-9,8,-5,-21,-6,18,-16,-13
1461662328468501,4,0,-31,-40,-19,-29,-87,-14
1461662328468501,27,9,24,40,13,-25,-55,5
1461662328468501,-22,-8,-13,-29,-4,6,14,-11
1461662328468501,-4,9,-10,23,20,34,65,8
1461662328476494,8,-7,-13,32,20,-3,-6,-1
1461662328476494,-20,-6,20,-63,-59,-15,33,-3
1461662328490532,9,-8,13,71,49,18,-44,17
1461662328490532,32,8,13,-13,14,-20,-23,2
1461662328497537,-21,3,-15,1,-18,-4,15,-1
1461662328497537,-35,-7,19,-28,-23,1,-38,-37
1461662328513534,12,-11,-22,16,-7,-20,8,13
1461662328513534,-23,4,-8,8,8,4,30,6
1461662328519524,-2,-3,-39,-20,-6,-2,-36,-4
1461662328519524,28,-7,22,-44,-23,-1,54,10
1461662328536575,-10,-20,-43,-16,-5,7,-28,-22
1461662328536575,-14,4,12,31,6,-32,-31,3
1461662328538550,-12,5,16,-27,-5,23,106,5
1461662328538550,-4,-5,-28,-27,15,39,-43,1
1461662328550583,6,-6,18,-27,-30,-50,-63,-13
1461662328550583,14,3,-21,22,7,-2,13,11
1461662328557561,3,0,26,61,23,39,30,-6
1461662328557561,-9,-2,-42,-30,-9,-27,-28,5
1461662328573562,18,-5,57,-14,-42,-11,17,-1
1461662328573562,13,3,-12,-19,44,37,49,4
1461662328579624,-28,-6,7,32,-4,10,78,9
1461662328579624,29,-4,-15,-60,-25,-31,-66,11
1461662328596641,-19,-5,-33,-5,-10,4,71,-5
1461662328596641,12,0,27,29,27,52,-22,1
1461662328597586,20,2,-9,-2,-16,-73,-128,-5
1461662328597586,-12,-10,19,20,17,0,1,-11
1461662328610596,2,-10,-23,-48,-2,29,56,-4
1461662328610596,31,8,3,-16,-26,-20,-11,24
1461662328617601,-7,10,1,-20,3,-6,-45,-9
1461662328617601,-1,-8,-7,1,-15,-17,-3,5
1461662328648679,8,-4,-5,11,21,29,70,-7
1461662328648679,-48,-3,-13,-95,-51,-8,-11,-39
1461662328650619,4,7,64,59,65,11,-26,17
1461662328650619,-5,0,0,-3,12,-8,39,2
1461662328656640,26,-14,-6,-46,-14,26,62,0
1461662328656640,-32,-1,-7,-56,-26,5,-39,-16
1461662328657621,12,10,-55,-10,4,-52,-64,13
1461662328657621,5,-2,15,-27,13,28,74,0
1461662328670649,22,-10,4,-56,-20,39,1,21
1461662328670649,18,0,28,55,50,-55,-76,22
1461662328677655,-24,0,38,-26,8,8,-22,-26
1461662328677655,0,-7,12,15,28,22,-10,1
1461662328693673,2,-1,-43,-16,-22,-55,-61,13
1461662328693673,12,3,21,-5,-27,-8,24,-13
1461662328699709,-20,4,-2,9,-1,19,25,-12
1461662328699709,10,-7,-24,-11,-2,10,35,7
1461662328716669,-19,-12,29,2,5,9,-8,-18
1461662328716669,-9,6,-13,31,14,1,1,4
1461662328717664,33,6,-4,-40,-16,5,20,9
1461662328717664,-28,-7,-50,-4,-29,10,42,-5
1461662328730702,-1,-8,54,127,78,19,19,2
1461662328730702,-6,6,11,-2,-17,-23,-48,7
1461662328737707,-16,9,14,-37,-38,-1,-19,-10
1461662328737707,43,-4,-32,-38,7,10,45,27
1461662328752707,-2,-4,16,60,18,1,-48,-5
1461662328752707,-17,2,-21,-32,-15,-44,-44,-31
1461662328759711,-11,7,13,17,-11,-10,-17,4
1461662328759711,-3,-2,11,34,14,-5,-35,3
1461662328776751,7,-7,-10,-9,19,4,33,1
1461662328776751,-6,-7,13,-34,-15,39,61,-9
1461662328777706,-45,21,-69,-48,-21,0,13,-12
1461662328777706,-8,-14,17,29,-8,-33,-27,-1
1461662328804724,68,-18,2,5,4,0,-39,6
1461662328804724,11,18,19,-17,-1,2,19,-5
1461662328813730,-65,13,-69,-63,-11,4,19,-13
1461662328813730,-14,-9,46,94,51,19,14,6
1461662328836746,38,-23,-15,-72,-36,-24,-30,-6
1461662328836746,27,6,34,58,13,3,6,10
1461662328839749,-22,8,14,0,16,30,53,7
1461662328839749,-19,-10,-35,-44,-26,-3,-38,-12
1461662328858762,20,-14,2,-1,-12,-42,-54,-1
1461662328858762,27,9,0,-7,-7,-42,-25,14
1461662328860766,-39,9,4,3,1,-35,-25,-25
1461662328860766,-51,-9,-4,0,-4,76,57,-7
1461662328879817,28,-7,6,4,12,45,35,13
1461662328879817,12,4,-34,-16,-13,16,20,-1
1461662328888785,-21,10,13,6,-13,-26,-27,-5
1461662328888785,-1,-8,-18,-42,-24,-42,-29,-9
1461662328911858,19,-5,29,-25,-21,-6,-5,-5
1461662328911858,-5,10,11,72,64,32,38,5
1461662328914832,-15,4,-55,14,7,6,-1,-2
1461662328914832,2,-7,-9,-94,-42,-27,-16,2
1461662328932874,6,5,24,55,30,4,-11,-3
1461662328932874,23,1,-6,21,4,5,47,8
1461662328941853,-12,-17,35,10,2,19,25,9
1461662328941853,-2,-4,-20,-12,2,3,-25,9
1461662328963896,12,11,-16,-57,-33,-36,-44,-9
1461662328963896,-45,-3,-1,-12,-13,2,-11,-9
1461662328965902,27,-15,6,15,10,0,-8,-9
1461662328965902,3,10,14,13,5,-9,8,-19
1461662328986870,-45,14,-3,-2,2,-13,-40,1
1461662328986870,13,-8,-6,3,-4,-5,4,18
1461662328987856,34,-18,-2,-31,-11,12,20,15
1461662328987856,20,-3,2,15,6,-16,-13,0
1461662329015988,-24,14,-3,8,1,5,8,-15
1461662329015988,-18,-5,-21,-74,-31,8,7,-15
1461662329017952,14,-11,-4,14,3,12,-1,9
1461662329017952,20,-1,18,84,42,0,0,2
1461662329039036,-28,15,-12,50,43,14,17,0
1461662329039036,-21,-10,9,-12,-14,-9,-8,-4
1461662329040985,49,-14,17,-7,-10,1,-1,4
1461662329040985,-16,2,-24,-11,-7,-5,0,-6
1461662329059980,-41,11,-5,-32,-18,1,51,10
1461662329059980,-11,-9,-17,-14,-11,-7,-33,-8
1461662329068986,39,-30,9,3,0,-16,1,0
1461662329068986,-11,-7,1,14,9,6,-25,-4
1461662329092061,-23,7,-7,-23,-15,-34,-35,-7
1461662329092061,-2,-14,-8,-1,-3,-10,5,6
1461662329094062,-16,7,4,9,7,41,35,-6
1461662329094062,27,26,6,-7,-11,-5,8,4
1461662329114077,-27,26,-14,-36,-16,-1,0,-8
1461662329114077,-12,-20,17,49,20,5,-5,-7
1461662329115020,23,-43,-3,-30,-5,-9,-8,9
1461662329115020,12,-16,23,71,39,7,11,3
1461662329136036,-9,-29,-16,-5,2,2,-10,-1
1461662329136036,1,59,5,6,-6,-7,-1,0
1461662329144076,4,68,-11,-22,-10,-1,-6,0
1461662329144076,-1,107,3,-18,-12,-6,-4,-3
1461662329145043,-9,9,-3,-4,-6,-4,-4,-10
1461662329145043,1,-128,-9,-11,-6,-6,2,-4
1461662329145043,5,-128,1,18,6,10,-4,5
1461662329145043,19,-83,-3,-15,-6,-14,14,9
1461662329151053,7,25,0,4,-5,-16,-29,-5
1461662329151053,-63,28,-5,-17,-6,38,33,-5
1461662329159079,-4,33,3,9,-4,-33,-45,-14
1461662329159079,5,73,2,-9,-9,-20,-17,-8
1461662329160058,-8,64,4,-6,1,16,13,4
1461662329160058,15,39,-3,16,-4,-2,-2,-2
1461662329160058,16,17,-2,-2,5,13,26,7
1461662329160058,-1,19,2,-16,-3,-2,2,3
1461662329166085,-16,-2,4,-4,0,1,1,-4
1461662329166085,6,-17,0,-21,-3,-4,-4,2
1461662329166085,-1,-13,-5,14,3,-2,3,-3
1461662329166085,5,27,-3,-17,-7,0,-4,-2
1461662329174062,-15,-94,9,-4,-1,2,-2,-1
1461662329174062,6,-63,-13,-15,-7,-1,-2,0
1461662329175091,11,-27,-4,6,3,-3,-2,3
1461662329175091,1,38,5,5,-1,1,-3,-6
1461662329181095,-8,97,-2,2,-1,6,5,-3
1461662329181095,-2,63,-6,-12,-4,-9,-8,1
1461662329181095,12,52,-12,-5,-3,-11,-6,-2
1461662329181095,-7,32,2,0,-4,-5,1,-5
1461662329196092,-8,55,13,3,2,24,4,1
1461662329196092,3,43,1,3,4,3,0,-2
1461662329198093,6,81,3,4,2,23,15,7
1461662329198093,-1,29,-9,-2,-1,-9,-2,0
1461662329210102,-4,34,-3,-4,-6,-25,-4,-2
1461662329210102,7,49,6,10,7,12,4,6
1461662329219095,1,23,6,-1,-2,-3,4,5
1461662329219095,-1,12,4,-10,-9,-7,-8,0
1461662329233142,-3,56,0,0,3,7,4,5
1461662329233142,2,38,-5,14,6,-8,-7,3
1461662329240147,2,5,-8,-9,-8,-3,4,5
1461662329240147,5,30,18,4,-3,3,1,2
1461662329256131,-8,-5,-37,-6,-3,-8,-6,-2
1461662329256131,2,20,12,2,0,-3,0,2
1461662329258133,5,0,6,-5,-4,-1,-5,-5
1461662329258133,0,-3,-2,-6,-5,0,-2,-2
1461662329270183,-3,20,12,10,2,3,1,-2
1461662329270183,2,4,16,3,-3,-3,-5,-2
1461662329279190,-2,-17,-4,2,3,-2,-7,-6
1461662329279190,-8,-37,-29,-8,-2,2,2,-6
1461662329293270,-4,-10,9,-1,-1,-2,3,3
1461662329293270,-1,-26,-15,-4,-1,-3,-2,-2
1461662329300275,2,0,15,5,-1,-1,-2,0
1461662329300275,-5,-13,-12,-2,0,6,2,-2
1461662329316217,-7,-19,-19,-1,1,-1,-3,-4
1461662329316217,-3,-16,21,-1,-1,-9,-7,-4
1461662329322221,1,-23,-33,0,2,2,1,-2
1461662329322221,-2,-10,14,-2,0,4,-2,-3
1461662329330250,1,-12,2,2,-2,0,0,-1
1461662329330250,0,-8,12,-3,-2,-8,-3,1
1461662329339239,5,-7,-4,-3,0,3,-1,3
1461662329339239,-1,-28,11,6,-3,-4,-1,-2
1461662329353302,-4,-5,9,3,1,3,1,-1
1461662329353302,-5,-16,-48,-15,-5,-3,1,-3
1461662329360308,2,2,20,1,0,-2,-2,-3
1461662329360308,-1,-2,-31,-6,-4,-3,-2,-1
1461662329376259,-5,8,18,8,6,0,0,2
1461662329376259,1,-8,-2,3,1,2,0,1
1461662329382287,0,-2,3,3,-1,-1,0,-1
1461662329382287,2,-10,-5,-6,-2,-1,0,0
1461662329390270,1,0,15,2,0,0,-1,-1
1461662329390270,-4,-9,-14,-4,-5,-10,-3,-2
1461662329399274,1,-8,-7,1,0,7,0,-1
1461662329399274,-2,-6,1,-2,-1,3,0,0
1461662329413284,-1,-13,-15,-3,-4,-3,0,-1
1461662329413284,0,-2,8,-1,-2,2,-1,-1
1461662329420289,4,5,21,0,-1,-6,-3,-2
1461662329420289,-3,-19,-20,-1,-2,0,-2,-4
1461662329435299,-5,-7,-10,-12,-6,-4,-3,-5
1461662329435299,-3,-4,17,1,-1,2,-1,0
1461662329442317,1,1,1,4,0,-3,1,1
1461662329442317,-1,6,9,3,4,1,0,1
1461662329458328,-3,-6,-8,1,0,-5,-3,-3
1461662329458328,-1,-1,-2,0,-1,4,1,0
1461662329460317,1,-4,-4,1,-2,-1,0,1
1461662329460317,1,-8,-18,-4,-4,-2,-1,-2
1461662329473339,-7,-11,4,-2,-2,-4,-3,-4
1461662329473339,-1,-1,-2,2,2,6,4,1
1461662329480390,-3,-12,-13,-4,0,-4,-2,0
1461662329480390,2,2,6,-2,-2,1,-2,0
1461662329495406,-1,0,-3,-2,-2,-1,0,-2
1461662329495406,-1,-6,-4,-2,-2,-2,-3,1
1461662329502348,2,-1,-1,-2,-1,-1,-2,2
1461662329502348,0,0,10,3,0,-1,-1,-2
1461662329519362,-4,-9,-15,-11,-5,-5,-3,-3
1461662329519362,2,0,-3,-2,1,1,1,0
1461662329521363,3,0,5,3,3,-1,-1,0
1461662329521363,1,-1,1,2,-1,0,-1,-1
1461662329533428,-1,2,-3,-4,-3,-1,-2,-1
1461662329533428,-3,-9,-10,-4,-1,2,0,-1
1461662329540439,0,2,0,-7,-5,-2,0,-1
1461662329540439,7,10,14,3,3,1,1,1
1461662329556402,3,1,-7,-1,0,-1,0,0
1461662329556402,-4,6,8,2,-2,-3,-3,-2
1461662329564455,-6,-14,-12,-2,-1,-2,-1,-2
1461662329564455,-4,-8,-5,-4,-5,-5,-3,-1
1461662329578510,-2,7,9,3,3,4,-1,-1
1461662329578510,-2,2,4,1,1,0,-1,1
1461662329580498,2,0,-1,1,0,-1,-2,-2
1461662329580498,-1,3,10,-3,-2,-3,0,-1
1461662329593525,-2,-8,-12,-1,-2,-5,-2,0
1461662329593525,0,0,8,-1,-1,2,-1,0
1461662329599530,-2,-7,4,3,2,-1,-1,1
1461662329599530,0,1,0,-4,-4,1,1,-1
1461662329615582,3,3,1,-5,-4,-4,0,-1
1461662329615582,0,1,1,7,1,-1,1,-2
1461662329622540,5,5,-6,-1,2,0,-1,-1
1461662329622540,-5,-11,-5,-1,-2,-2,-3,-4
1461662329638596,-1,-3,-7,2,0,-1,0,0
1461662329638596,-1,-2,-3,-2,-2,-3,-1,0
1461662329640540,1,-3,-1,-3,-2,-1,-2,-1
1461662329640540,3,2,-6,2,0,0,-2,-1
1461662329653554,-4,-1,8,1,-1,1,-2,-2
1461662329653554,-1,-1,0,-1,0,-3,-2,-1
1461662329660558,-2,-4,-2,-1,-2,-3,-1,-2
1461662329660558,-2,1,-6,-2,1,0,-1,-2
1461662329675581,-1,2,7,-3,-1,-1,2,-1
1461662329675581,0,-5,-4,0,0,1,0,0
1461662329682568,1,1,4,-3,-1,0,-2,-1
1461662329682568,2,-1,-1,0,-1,-3,-1,-3
1461662329698584,1,0,2,4,1,1,-1,0
1461662329698584,0,3,-2,-3,0,-5,-3,-1
1461662329700584,-4,-4,-20,-9,-6,-2,0,0
1461662329700584,0,1,5,-10,-5,0,-2,-1
1461662329713610,-10,-19,-14,10,5,1,0,-4
1461662329713610,-2,-2,1,-2,1,1,0,-2
1461662329719595,2,0,4,3,-1,-2,-2,-1
1461662329719595,0,1,-5,-4,-3,0,-2,-3
1461662329735618,1,2,2,-3,-4,-3,-2,1
1461662329735618,3,7,12,0,-3,-2,-1,0
1461662329742669,-4,-14,-19,-1,0,-1,0,-2
1461662329742669,-1,-5,-8,1,1,-1,-1,-1
1461662329758634,-1,1,3,-4,-3,0,-2,-2
1461662329758634,-2,-6,-6,2,0,-1,-1,-2
1461662329760645,4,10,17,1,-1,0,2,0
1461662329760645,-3,-2,-2,1,-3,-3,0,-2
1461662329773651,2,3,-4,-4,-1,-3,0,0
1461662329773651,-1,4,-5,0,-1,2,2,2
1461662329781656,1,-1,12,-2,-2,0,0,-1
1461662329781656,1,-3,-4,-1,1,-1,-2,-3
1461662329795665,-1,1,3,-1,-2,0,0,-1
1461662329795665,-3,-5,-8,-2,0,-3,-1,-1
1461662329802653,-2,6,4,-1,1,-1,-2,-1
1461662329802653,-2,-3,-5,0,0,-2,0,3
1461662329818665,-3,0,2,-4,-1,0,-3,-2
1461662329818665,-2,-1,-1,-3,-1,1,-1,-2
1461662329820678,1,0,0,2,1,0,-2,1
1461662329820678,-1,2,2,-2,1,-2,-3,-2
1461662329832686,1,9,11,3,0,-1,1,0
1461662329832686,-4,-16,-16,-1,0,-2,1,1
1461662329839692,3,-3,-4,-2,-3,-1,-1,-2
1461662329839692,-2,-2,-1,0,-1,0,-3,-2
1461662329855702,-3,2,3,-3,-3,-2,0,-2
1461662329855702,0,1,0,0,-2,0,-1,0
1461662329862736,1,1,0,-1,-1,-1,-1,-1
1461662329862736,1,0,-3,-3,-1,-1,-2,0
1461662329878765,1,-3,-5,1,-3,0,-3,-2
1461662329878765,1,2,-3,-3,0,-2,-3,-2
1461662329880767,-3,-5,-3,-2,-2,2,3,-2
1461662329880767,-1,0,4,-2,0,1,1,-3
1461662329893775,-5,-5,-4,0,1,-2,-1,-2
1461662329893775,-2,-1,0,3,-2,-1,0,-1
1461662329899780,-2,-3,-6,-3,1,1,-1,1
1461662329899780,1,0,-4,-1,-3,-1,-1,-1
1461662329915792,0,-4,-2,-4,0,1,0,1
1461662329915792,0,-1,-2,6,1,-1,-2,-1
1461662329922797,3,6,7,1,-2,-2,-2,-1
1461662329922797,-1,2,7,0,-3,-4,0,-2
1461662329938762,-5,3,3,-8,-3,-2,0,-1
1461662329938762,-4,-8,-2,2,1,1,0,1
1461662329940763,1,-1,-3,-5,-3,-1,0,0
1461662329940763,3,-3,-4,9,1,-1,-1,-1
1461662329953863,1,3,-1,0,-3,-1,-2,1
1461662329953863,-1,5,2,-5,-1,-1,-3,-1
1461662329959867,2,-7,-1,-1,-2,-3,-3,0
1461662329959867,0,-8,-7,-5,-2,0,0,-1
1461662329975926,-2,-5,-8,1,1,-1,-1,-1
1461662329975926,2,6,14,-1,-2,-2,0,-2
1461662329982935,4,-3,-14,-2,-2,-2,-3,0
1461662329982935,-4,-3,-3,-2,-2,-5,-1,-3
1461662329998946,-3,-2,-2,1,-1,2,-1,-3
1461662329998946,-3,-2,0,-3,-1,1,0,0
1461662330000984,-1,5,2,0,-2,-3,1,1
1461662330000984,-1,1,8,-1,0,-2,-4,-1
1461662330012963,-5,-12,-13,-4,-2,0,1,1
1461662330012963,2,3,2,-1,-1,-1,0,1
1461662330022005,-5,-3,1,2,2,0,-1,-3
