timestamp,emg1,emg2,emg3,emg4,emg5,emg6,emg7,emg8
1461663219762594,-1,-5,-8,0,-2,-3,-3,-1
1461663219762594,1,4,8,1,-2,-1,-2,-4
1461663219771600,0,-6,-5,-1,3,0,5,5
1461663219771600,-4,-1,1,1,1,-1,0,1
1461663219786623,2,3,-9,0,0,0,-1,-3
1461663219786623,-1,-1,-11,-3,-1,-2,-1,1
1461663219799621,-2,-1,11,-5,-4,-1,-2,-3
1461663219799621,2,1,4,1,-2,1,-1,-4
1461663219808626,-3,1,-8,-3,-1,0,-2,-1
1461663219808626,-2,-10,-16,-1,2,0,-1,0
1461663219814631,3,17,23,6,0,0,-1,0
1461663219814631,-4,-9,1,-1,-4,-4,4,-1
1461663219822636,-3,4,-40,-12,-3,-3,-8,-6
1461663219822636,-3,-10,7,0,0,0,0,1
1461663219831645,4,10,-3,-1,-2,-2,-4,1
1461663219831645,-7,-22,-9,-3,1,-2,-1,-5
1461663219844711,4,4,29,8,-1,0,2,0
1461663219844711,-8,0,-19,1,2,3,1,2
1461663219853723,1,-10,-27,-12,-4,1,-1,1
1461663219853723,4,6,1,-3,-3,-2,-1,-3
1461663219868670,-3,0,-9,-2,-3,0,-2,-6
1461663219868670,0,7,20,1,-2,0,1,1
1461663219874674,-4,-2,3,3,1,2,-5,6
1461663219874674,5,1,-12,-3,-2,0,0,1
1461663219891692,0,1,17,3,0,-1,-2,-5
1461663219891692,-5,-5,-11,-10,-6,-3,1,-2
1461663219892693,-2,1,5,5,0,-1,2,1
1461663219892693,1,0,7,-3,5,-1,-4,0
1461663219904701,-3,0,-15,0,-4,-2,-1,-3
1461663219904701,5,12,20,17,7,1,0,-1
1461663219919705,1,1,-19,0,0,1,2,3
1461663219919705,-2,1,6,1,-3,-1,-2,-2
1461663219928712,-7,-14,11,-2,-3,-4,0,-1
1461663219928712,0,5,-4,-8,-3,-2,-2,-2
1461663219942746,-4,2,-8,-4,-3,0,-2,-2
1461663219942746,-5,-4,5,0,-2,1,0,-2
1461663219951744,0,0,2,3,1,1,-2,-3
1461663219951744,-14,-23,-9,-5,-4,-3,-2,-2
1461663219952745,3,1,10,3,3,-1,-1,-1
1461663219952745,5,0,-6,-3,-3,-1,-1,-1
1461663219964740,-2,-4,-2,-3,-2,1,2,1
1461663219964740,2,3,4,-3,-5,-2,-4,1
1461663219973760,0,1,0,-3,0,-1,-1,-2
1461663219973760,4,2,-7,-4,-3,-2,-1,2
1461663219988754,-1,0,-1,-6,-5,-4,-2,0
1461663219988754,-3,3,4,-4,-1,-3,-2,-2
1461663219994774,-3,-7,4,3,-3,-3,0,1
1461663219994774,2,4,-15,3,3,-2,-1,-2
1461663220011778,1,1,-4,-1,1,0,-1,-1
1461663220011778,-1,0,-4,-14,-8,-1,-1,0
1461663220012784,0,-6,1,4,3,1,-1,0
1461663220012784,-6,-12,-4,3,1,2,-1,-3
1461663220025792,-2,0,6,6,1,-1,-2,-3
1461663220025792,0,0,-1,7,5,0,-1,-1
1461663220033786,0,-1,-5,-6,-6,-1,-1,-1
1461663220033786,5,9,7,-5,-2,0,-1,-3
1461663220047808,-3,-1,0,1,0,-1,1,1
1461663220047808,-1,4,2,0,-1,1,-1,0
1461663220062806,2,6,-1,-1,-1,-2,-1,-1
1461663220062806,-1,-6,-3,1,-1,0,-1,-1
1461663220071815,-4,-15,-1,-5,-1,-1,-3,-1
1461663220071815,-7,-10,0,-2,-1,0,-1,-3
1461663220072823,0,-6,-1,1,1,0,1,0
1461663220072823,4,10,-4,-7,-3,-3,-1,0
1461663220084833,-1,-7,3,6,3,-1,-2,1
1461663220084833,2,0,-1,-2,-3,-2,-1,0
1461663220093844,-3,-4,-6,-2,1,0,-1,-3
1461663220093844,3,3,8,1,-3,-2,0,-2
1461663220107837,-2,-1,-5,-8,-2,2,1,0
1461663220107837,0,-1,-2,7,2,0,1,-1
1461663220114842,1,3,3,14,2,-1,0,1
1461663220114842,-1,-1,1,-1,-2,-2,-2,-3
1461663220131883,2,5,8,2,1,-2,0,1
1461663220131883,-1,-2,-2,-8,-1,-1,-3,-1
1461663220132855,-1,-3,-13,-6,-2,0,-3,-1
1461663220132855,-6,-4,1,1,0,3,0,-3
1461663220144926,-6,-12,-6,-5,-4,-1,0,-1
1461663220144926,1,1,1,-1,0,1,3,1
1461663220159936,1,7,-3,-7,-2,-3,-1,-3
1461663220159936,-6,0,-1,-4,-6,-4,-2,-2
1461663220167947,1,8,-1,1,2,1,-2,-1
1461663220167947,-1,2,4,5,3,1,0,-1
1461663220174886,0,-3,-3,-8,0,0,-1,-1
1461663220174886,-9,-19,-14,1,-2,-1,-1,-4
1461663220190918,0,9,8,-1,-4,-3,-1,0
1461663220190918,1,0,-5,4,0,1,3,0
1461663220197931,-2,-3,0,-4,-1,-2,0,-3
1461663220197931,8,4,-6,2,8,2,0,1
1461663220204936,-1,9,14,2,-2,-2,-3,-1
1461663220204936,1,-1,0,6,3,1,-2,1
1461663220213921,-1,-2,-1,-8,-2,-3,-1,0
1461663220213921,-3,-2,-1,-6,-5,-4,-1,-2
1461663220227940,-1,-4,-7,3,1,-1,-1,-1
1461663220227940,0,6,-5,0,1,-1,-1,-1
1461663220234944,-5,-12,1,6,0,1,0,-1
1461663220234944,2,4,1,-5,-2,-2,-2,0
1461663220251941,0,2,-5,-8,-2,1,-1,0
1461663220251941,-2,-2,1,-2,-4,-1,-3,-3
1461663220252942,-5,-4,-2,1,0,-2,-2,-2
1461663220252942,1,3,8,3,-2,-4,-3,-1
1461663220265006,-2,-18,-5,0,2,-3,-1,0
1461663220265006,-3,5,3,-4,-4,-4,-2,-1
1461663220273958,2,3,-3,-1,0,-2,-1,-2
1461663220273958,-6,-8,2,-2,-2,-2,1,-2
1461663220287967,-1,11,0,-4,-4,1,0,2
1461663220287967,-2,-8,-8,-8,-5,-3,-2,-2
1461663220294973,-2,0,14,10,1,0,1,0
1461663220294973,1,2,-6,0,0,-1,0,-2
1461663220310998,3,0,-4,0,1,0,0,-1
1461663220310998,-2,-1,-11,-7,-3,-1,0,-1
1461663220312987,3,2,-1,0,1,0,-1,0
1461663220312987,0,-4,-2,-1,-4,0,-3,-1
1461663220325008,-3,-1,6,-2,-2,-1,0,0
1461663220325008,2,-5,-2,1,-1,0,-1,0
1461663220334001,-1,3,2,-2,-4,-3,-2,-1
1461663220334001,-4,-5,-4,-1,4,0,-1,-2
1461663220348008,2,10,-6,-2,-1,-1,0,2
1461663220348008,-4,-7,0,-3,-1,0,-2,-3
1461663220355072,-1,-7,-6,5,0,1,-2,-1
1461663220355072,-4,-3,-3,-1,0,0,-2,-2
1461663220371084,-5,-1,1,0,-1,-1,0,-1
1461663220371084,3,12,8,-1,2,0,1,0
1461663220373026,-3,-14,-2,-5,-4,-4,-1,-2
1461663220373026,3,9,4,4,0,0,-1,1
1461663220385046,-1,-7,-3,-3,-2,1,0,-1
1461663220385046,0,-1,-5,-3,-1,0,0,-1
1461663220394056,-1,-7,-8,0,-2,-1,0,-1
1461663220394056,-1,0,4,3,-4,-3,-1,-5
1461663220408053,0,-3,-1,7,4,-1,0,-2
1461663220408053,2,4,5,5,3,-1,-1,1
1461663220415058,-3,-1,-5,-12,-5,-1,-1,-2
1461663220415058,-6,-5,-10,-10,-4,-2,-1,-1
1461663220431069,-2,5,4,9,5,1,1,-2
1461663220431069,-2,-2,-4,0,-1,-1,-1,1
1461663220433071,6,3,0,-5,-2,1,-2,0
1461663220433071,-3,3,0,-1,-3,-2,0,-2
1461663220445106,-4,-3,2,-3,-3,-1,-3,-2
1461663220445106,4,0,-5,3,-2,-2,-1,1
1461663220454112,0,9,4,-13,-5,-3,-1,-3
1461663220454112,-5,-4,4,16,7,0,-1,-2
1461663220468108,-3,0,3,1,1,0,1,-1
1461663220468108,-1,-14,-5,-3,2,0,0,0
1461663220482118,-2,-6,0,19,5,1,-1,0
1461663220482118,-3,-4,3,-7,-4,0,-1,0
1461663220491109,0,-2,-7,-1,-2,-2,0,2
1461663220491109,3,6,-2,-8,-6,0,-1,-2
1461663220499114,0,3,-1,4,-1,-1,-1,-3
1461663220499114,-3,-1,3,5,0,-3,0,-1
1461663220505134,0,-1,-2,0,-2,1,2,2
1461663220505134,-4,-5,-1,-9,-4,-2,1,0
1461663220514126,-3,1,-4,-11,-2,-2,-2,-2
1461663220514126,2,-1,-1,1,1,-1,-2,0
1461663220529148,-1,-5,-6,-11,-6,-2,-3,-2
1461663220529148,-3,-2,1,11,2,-1,-2,-2
1461663220535169,2,5,3,4,0,1,0,-1
1461663220535169,0,-5,-2,-9,-5,-1,-1,-3
1461663220551169,1,3,3,3,3,-1,-1,0
1461663220551169,-4,-3,2,-1,-3,0,0,1
1461663220553153,-3,-4,-6,-2,-2,-1,-1,-1
1461663220553153,4,8,-3,-5,-4,-4,0,0
1461663220565164,-1,-5,-9,-8,0,-2,0,1
1461663220565164,2,4,1,5,2,0,1,-1
1461663220574172,-3,-4,-5,-9,-3,-2,-2,0
1461663220574172,0,2,5,-1,-3,-1,-1,0
1461663220588181,-2,1,5,6,1,0,0,-1
1461663220588181,1,-4,-3,0,1,0,-1,-1
1461663220595184,-2,-5,0,-14,-3,-2,-1,-2
1461663220595184,5,3,-3,-5,-3,0,0,0
1461663220611212,-3,-6,3,10,2,0,0,1
1461663220611212,-4,-2,-2,-3,-3,-2,-2,0
1461663220617262,0,-2,-2,6,1,-2,2,-2
1461663220617262,0,-2,-4,-8,0,-2,-2,-2
1461663220625267,0,5,-2,-8,-4,-2,-2,0
1461663220625267,-3,-6,1,-1,-1,1,1,-1
1461663220634214,0,-1,-3,3,2,0,-1,-2
1461663220634214,-1,-1,-1,4,1,1,0,-1
1461663220648229,-2,1,0,-4,-2,-1,-1,-1
1461663220648229,-1,2,2,-2,1,0,-2,-2
1461663220655255,2,-4,-2,-2,-5,0,-1,-1
1461663220655255,0,2,0,4,0,0,0,-1
1461663220671239,-3,-8,-2,6,-2,-1,-4,-2
1461663220671239,2,3,-2,-5,-2,-1,1,0
1461663220677306,-2,-1,0,-4,-3,-1,-1,-1
1461663220677306,-2,-1,0,7,2,-1,-3,-1
1461663220685266,0,0,-8,-10,-2,-2,-1,1
1461663220685266,-8,-3,2,2,0,-2,-2,-1
1461663220694272,1,3,-2,-3,2,0,1,0
1461663220694272,-1,0,-1,-3,-2,0,-2,0
1461663220716327,-1,-4,3,1,-1,-2,-2,-1
1461663220716327,-3,-1,-4,-7,-2,-1,-2,-4
1461663220718302,-1,4,4,9,3,-1,-1,-2
1461663220718302,-5,-4,-2,-3,-1,0,0,-1
1461663220730292,0,-2,-3,0,-1,-1,0,0
1461663220730292,1,-2,3,1,0,-1,0,0
1461663220737296,1,4,-2,-8,-3,0,-3,-1
1461663220737296,-4,-4,-4,-5,-2,-1,-2,-1
1461663220745347,2,1,1,-5,-2,-1,0,0
1461663220745347,0,-1,-7,-11,-8,-1,-1,-1
1461663220754295,-6,-6,4,22,8,-2,-2,-2
1461663220754295,5,5,-3,-4,-1,-1,2,2
1461663220768307,0,-5,0,-6,1,0,-1,1
1461663220768307,4,5,-6,-7,-10,-3,-3,2
1461663220775311,-1,-5,-4,18,8,-1,-2,-2
1461663220775311,-3,9,9,9,5,0,-1,-2
1461663220790323,-6,-20,0,1,1,-2,-1,-1
1461663220790323,4,2,3,-8,1,-1,5,-1
1461663220805330,-5,-10,-12,-24,-13,-3,-7,-3
1461663220805330,1,-9,-3,17,5,-1,3,0
1461663220814337,-9,-1,-5,-8,-4,-4,-2,-1
1461663220814337,2,5,10,7,-4,-3,-4,-2
1461663220815338,2,-1,-8,-8,1,0,3,-3
1461663220815338,0,1,-3,-8,-6,1,-1,0
1461663220836353,0,1,0,-1,-3,7,13,1
1461663220836353,0,-7,-4,4,0,2,0,0
1461663220838354,6,2,0,-3,-4,-1,4,2
1461663220838354,-5,-3,3,2,5,-3,-8,-3
1461663220850375,2,14,3,0,2,-5,-8,-1
1461663220850375,2,10,11,3,2,-7,-13,-1
1461663220857409,3,-1,7,-15,-12,-3,-4,-3
1461663220857409,6,1,-3,22,9,2,4,3
1461663220874418,2,2,-2,-6,-4,0,4,2
1461663220874418,2,-12,8,22,13,2,6,-1
1461663220875383,-12,-14,-2,-6,-3,-3,-7,-4
1461663220875383,6,-3,-8,4,-2,1,1,2
1461663220888449,-7,13,6,14,8,5,12,-5
1461663220888449,-3,-9,-13,-29,-8,5,-4,-1
1461663220895452,8,11,6,-3,0,10,45,9
1461663220895452,-7,-15,3,26,1,-6,-35,-3
1461663220911418,15,7,-11,-11,-8,-20,-19,-4
1461663220911418,-22,-4,4,-8,-6,-2,-5,-12
1461663220919424,-4,-2,-20,-16,-8,2,14,4
1461663220919424,0,9,2,-14,-9,-4,-2,2
1461663220934423,-5,-9,9,26,0,-10,-22,-1
1461663220934423,-9,-5,1,-10,-7,-10,-14,-8
1461663220935424,2,-13,-18,0,7,11,10,1
1461663220935424,-2,21,-10,-27,-4,11,16,1
1461663220947432,4,2,7,34,2,-8,-19,-2
1461663220947432,9,14,15,-2,8,3,13,7
1461663220956438,-20,-33,-20,-29,0,2,-3,-6
1461663220956438,-15,-21,19,-2,-5,3,2,-7
1461663220970447,25,23,-26,20,12,15,16,8
1461663220970447,17,6,-12,-2,10,8,37,13
1461663220977492,10,30,23,38,8,-1,-36,-15
1461663220977492,-43,-32,-21,-39,-19,-10,17,-14
1461663220993503,-12,12,-6,-39,-19,-1,-27,1
1461663220993503,-1,-6,-1,7,1,8,39,3
1461663220995467,24,4,15,27,0,-25,-72,7
1461663220995467,-7,-2,18,-9,-7,-11,-21,-12
1461663221007492,8,-6,-17,-29,-5,8,14,0
1461663221007492,-45,-50,-39,-24,-7,-12,-11,1
1461663221016480,-21,1,6,8,-4,-23,-15,-8
1461663221016480,15,14,-18,1,-2,-8,8,3
1461663221030508,-19,-22,32,37,12,3,-4,1
1461663221030508,18,19,-9,-38,-11,21,18,0
1461663221037513,-7,19,15,-21,-16,6,21,-7
1461663221037513,1,-6,10,37,16,-5,-13,-1
1461663221053524,17,25,-1,-33,8,15,41,4
1461663221053524,9,38,-25,-12,4,12,8,0
1461663221055511,6,12,17,44,3,0,-3,3
1461663221055511,-4,-46,-38,-22,-11,5,28,-1
1461663221067579,10,10,16,-39,-28,-1,-12,3
1461663221067579,-2,-3,27,103,38,-27,-85,-26
1461663221076528,4,29,5,-28,-12,-9,0,1
1461663221076528,-13,-45,-41,-14,1,4,-5,13
1461663221090550,-22,-12,-14,-9,-4,1,21,-3
1461663221090550,-9,0,0,-34,-26,-4,6,13
1461663221097537,4,28,-7,-1,6,0,5,-10
1461663221097537,-5,28,6,-27,-9,-15,-31,-13
1461663221113550,-3,-19,19,33,-5,-11,4,-6
1461663221113550,26,27,5,39,19,17,52,18
1461663221115551,3,-2,16,20,9,19,-13,-2
1461663221115551,24,-46,28,12,-8,-10,14,-5
1461663221127617,-12,-71,-17,-24,3,13,0,-3
1461663221127617,-8,-128,-17,-82,-24,2,-50,-14
1461663221136565,-37,73,3,93,41,-8,-7,-1
1461663221136565,47,127,14,15,19,3,-1,7
1461663221150576,-28,97,-8,6,-3,-1,-10,10
1461663221150576,-21,73,-5,32,2,-10,33,6
1461663221157651,-3,-60,-19,-53,-20,-8,1,0
1461663221157651,5,-40,2,-19,-14,-7,-60,-19
1461663221173598,27,4,4,-21,-10,-15,40,-5
1461663221173598,-9,2,9,39,7,-7,-69,-7
1461663221175597,-6,-39,-30,-72,-40,-18,-7,-9
1461663221175597,-6,-7,9,15,4,-6,-11,6
1461663221187627,5,-19,24,37,27,5,-12,-1
1461663221187627,-6,-6,-27,-42,-12,16,50,6
1461663221196608,4,-52,32,-43,-11,20,41,2
1461663221196608,8,-14,-24,61,38,0,4,-6
1461663221210642,14,3,19,6,0,-7,-9,8
1461663221210642,2,20,-11,17,3,-6,27,6
1461663221217635,15,-14,-29,16,6,14,11,2
1461663221217635,-32,-5,-6,-50,-11,16,-34,-9
1461663221241699,-28,-4,19,-21,-12,4,46,-13
1461663221241699,-2,15,28,37,19,2,46,4
1461663221242640,54,-27,-27,54,37,-3,-59,16
1461663221242640,-32,-4,13,20,-7,-38,-7,5
1461663221247644,-6,5,-17,8,-1,13,39,16
1461663221247644,26,20,15,-49,-29,-15,-62,-13
1461663221256653,5,-16,11,-48,-33,-5,-2,5
1461663221256653,24,-9,3,50,38,10,26,2
1461663221270720,-28,10,-9,-38,-23,5,-37,-17
1461663221270720,-14,4,-1,67,36,1,-6,-10
1461663221277737,17,-12,11,8,4,-28,-17,1
1461663221277737,-23,-3,-22,-63,-27,-2,4,-3
1461663221301700,31,-1,6,-25,-23,-4,42,2
1461663221301700,-6,13,-9,-9,-12,16,19,0
1461663221302702,-51,-17,-68,-21,-2,29,9,-11
1461663221302702,21,-4,19,33,15,2,19,14
1461663221307704,19,0,-16,18,22,-13,-17,3
1461663221307704,51,3,27,-7,-4,12,-41,24
1461663221316693,-89,-8,18,0,-9,-19,42,-45
1461663221316693,12,-5,11,-34,-23,22,-15,5
1461663221330702,2,4,-18,47,23,-24,-128,-5
1461663221330702,2,5,5,-43,-41,-69,-44,5
1461663221337716,-7,-14,5,-6,2,22,56,6
1461663221337716,4,2,6,30,19,15,40,-9
1461663221353748,-26,1,-6,-71,-30,-2,-1,-5
1461663221353748,-30,7,5,-18,-7,52,48,-8
1461663221355722,18,-5,-30,88,53,-15,-19,20
1461663221355722,45,-2,19,-11,-32,-46,-43,2
1461663221367731,-25,1,-52,-5,12,-4,1,-14
1461663221367731,1,5,4,-49,-20,43,-3,-7
1461663221376736,-26,-6,7,50,32,-25,-58,-25
1461663221376736,18,-2,19,26,4,-10,15,24
1461663221390745,-35,4,-13,-63,-19,44,103,-18
1461663221390745,30,0,-28,-11,16,-8,-67,8
1461663221397769,35,-14,-8,-12,-45,-60,-79,18
1461663221397769,27,6,11,3,1,13,-27,10
1461663221413779,7,2,8,0,-12,-35,-9,-9
1461663221413779,-49,4,13,10,4,8,18,-31
1461663221415775,8,-8,4,-36,-12,18,-11,-4
1461663221415775,-51,7,-20,-75,-21,-1,41,-25
1461663221427811,10,0,-10,50,39,37,9,18
1461663221427811,10,-1,26,51,19,-12,3,13
1461663221436789,2,-4,15,33,9,-4,20,-10
1461663221436789,-10,-3,-35,-128,-27,44,51,-15
1461663221450799,52,3,28,123,72,43,15,27
1461663221450799,-9,-1,37,-7,-21,-82,-62,21
1461663221458819,20,-6,-8,-40,-30,-20,0,10
1461663221458819,-49,1,-53,-4,17,40,75,-29
1461663221473863,-32,5,11,-5,16,28,-54,-20
1461663221473863,85,-2,-4,15,-19,-69,-66,26
1461663221475838,31,-3,24,-39,-27,-11,-26,8
1461663221475838,-42,-5,13,38,6,-5,-23,-15
1461663221487815,-18,-3,5,-25,-35,-25,5,3
1461663221487815,-47,4,-64,-62,2,46,85,-14
1461663221496833,32,-3,107,73,14,10,13,5
1461663221496833,32,-5,-65,34,33,10,-2,12
1461663221510830,-8,3,2,-6,-9,-12,-5,4
1461663221510830,-13,1,-5,-13,-4,9,-5,-4
1461663221517894,-7,-7,-6,72,56,24,34,-11
1461663221517894,25,-1,41,-1,-9,-5,-6,7
1461663221533858,-15,5,-29,-20,-4,-10,-8,-6
1461663221533858,6,-3,11,-49,-13,61,80,14
1461663221535865,13,-8,-13,38,6,-44,-79,-26
1461663221535865,-18,-4,41,23,-18,-43,-52,-9
1461663221547864,-9,-8,-2,6,-10,-32,-5,9
1461663221547864,32,1,5,18,0,2,47,26
1461663221556869,6,-7,-21,-64,-30,3,-17,4
1461663221556869,4,3,-19,-15,-10,-25,-61,-31
1461663221570943,-5,-5,8,-10,-14,-18,-27,-5
1461663221570943,-38,4,18,38,13,20,17,-18
1461663221577938,-13,-1,-43,-83,-21,37,61,1
1461663221577938,24,2,-5,9,15,-1,1,7
1461663221592949,-1,3,30,-15,-2,7,8,12
1461663221592949,-6,2,-30,21,-3,-12,-10,-9
1461663221607911,9,-3,2,-72,-29,-4,-3,-11
1461663221607911,-23,2,21,78,34,4,6,-4
1461663221608906,-1,-3,-9,3,12,19,44,1
1461663221608906,-37,2,-21,-23,2,12,-58,-15
1461663221616906,39,-7,14,-26,-35,-34,27,22
1461663221616906,-3,-5,-19,-17,-12,-10,-11,-16
1461663221630927,-12,-4,22,34,6,-11,-47,15
1461663221630927,1,2,-16,10,-20,-60,-57,0
1461663221637977,11,-2,-8,-15,7,30,31,-13
1461663221637977,-15,6,6,-8,4,40,3,13
1461663221654965,-19,1,-12,-56,-55,-41,-18,-9
1461663221654965,13,-5,12,38,33,3,8,-2
1461663221660995,-23,-7,-16,30,26,11,1,-1
1461663221660995,23,2,-15,-10,2,1,35,17
1461663221677005,5,-1,-39,-74,-21,11,-3,-1
1461663221677005,-19,-1,32,67,37,5,2,-6
1461663221679949,0,-3,8,19,15,7,8,-5
1461663221679949,-33,7,-2,-1,-9,3,-1,-21
1461663221690982,33,4,-6,-11,2,3,7,17
1461663221690982,-12,2,-9,-45,-17,-5,13,16
1461663221697987,12,5,9,27,23,30,27,-4
1461663221697987,-38,10,5,-8,-8,-10,-51,-19
1461663221712974,10,8,-5,12,-15,-64,-27,6
1461663221712974,19,6,8,6,-3,-42,-2,1
1461663221720002,-25,7,-3,-9,-2,81,112,11
1461663221720002,9,-3,-4,-30,-14,39,-26,-4
1461663221728002,1,-6,17,32,18,5,-29,-13
1461663221728002,6,-13,-1,-3,2,0,-2,3
1461663221736993,-3,-7,-9,-8,-9,-26,-10,-4
1461663221736993,11,-9,7,-3,-5,-3,25,7
1461663221751013,-7,-4,-26,-41,-10,17,12,5
1461663221751013,7,-8,23,52,19,6,6,1
1461663221758042,-24,-5,-7,10,8,-10,-32,-8
1461663221758042,12,-1,15,12,2,-15,9,8
1461663221773055,14,-8,7,35,10,-5,-8,0
1461663221773055,-25,1,-18,-50,-25,-2,-4,-9
1461663221780020,-15,-2,-8,-14,-9,-13,15,2
1461663221780020,0,2,4,4,3,-14,-14,1
1461663221796031,0,-4,9,6,8,2,31,5
1461663221796031,5,-9,-8,-5,-5,1,-32,-6
1461663221798032,-14,-4,2,-8,-6,-24,-27,-8
1461663221798032,24,-2,-4,-6,4,89,44,15
1461663221811100,-26,-3,5,10,6,5,3,-6
1461663221811100,0,-8,-8,-2,4,11,20,7
1461663221818111,0,2,-7,-10,-7,-17,-27,-1
1461663221818111,1,-2,0,-16,-11,-33,-5,7
1461663221833069,14,-11,1,-9,-6,0,-4,-3
1461663221833069,10,-9,15,41,25,3,10,-3
1461663221840121,5,-2,-16,-14,-1,-8,-13,-6
1461663221840121,5,-19,6,-1,-2,-14,2,2
1461663221856132,-3,-128,5,19,6,7,2,-3
1461663221856132,10,-119,-3,-23,-13,-16,-8,-9
1461663221863079,5,90,4,-10,-4,9,-14,-5
1461663221863079,-18,117,-9,0,-1,-15,5,6
1461663221871093,-18,127,-11,-9,-9,-6,-12,-7
1461663221871093,2,118,-5,-12,-5,3,0,-9
1461663221879101,-3,86,-2,4,-3,-17,-15,-2
1461663221879101,-9,61,-3,0,-1,14,10,13
1461663221894130,13,-69,3,10,3,-8,-18,-5
1461663221894130,-3,-128,-6,-3,-5,-6,5,-6
1461663221900134,-7,-76,-4,-7,-1,23,10,6
1461663221900134,-1,-128,4,-3,-11,-91,-14,4
1461663221916134,5,-86,5,9,16,105,19,3
1461663221916134,5,-4,-6,-2,2,1,9,-5
1461663221918123,-6,44,4,-7,-8,-11,-7,-1
1461663221918123,-5,5,1,-1,-6,-7,-2,3
1461663221930127,12,30,4,6,1,-30,-1,0
1461663221930127,3,6,-17,-26,-8,-3,-5,-3
1461663221939133,-12,44,9,-19,-9,-2,-5,-4
1461663221939133,5,-25,13,33,17,3,2,4
1461663221953142,-4,-32,-1,5,1,-18,-4,-7
1461663221953142,0,-53,8,4,-3,10,-5,-8
1461663221960159,0,-128,-14,-24,-14,-11,-10,-4
1461663221960159,-16,-102,-18,-17,-4,3,-3,-6
1461663221976170,10,-27,3,6,2,-8,-7,-4
1461663221976170,3,71,-4,-8,-7,-1,-5,-4
1461663221978172,2,74,4,13,4,0,-1,1
1461663221978172,3,68,-4,-2,-4,-7,0,3
1461663221990169,4,53,0,8,3,-1,9,5
1461663221990169,-1,41,1,1,2,29,5,-1
1461663221999174,0,35,1,7,2,0,5,4
1461663221999174,3,11,1,1,-1,3,0,1
1461663222013200,0,28,-5,-9,-8,-25,-2,-2
1461663222013200,3,24,2,6,1,-4,1,-2
1461663222027235,-4,4,1,6,2,13,-1,1
1461663222027235,-1,2,2,-5,-2,2,-1,0
1461663222036201,3,-11,0,3,-2,-3,-4,-2
1461663222036201,-2,-10,-1,5,0,-5,-1,-5
1461663222039219,-7,-10,-8,-5,-3,1,-1,-1
1461663222039219,-1,15,3,-8,-6,-5,-1,0
1461663222051212,-2,14,1,8,1,1,-1,-4
1461663222051212,0,-20,0,-2,1,-2,0,0
1461663222059272,-6,-16,-4,3,3,-3,-3,-1
1461663222059272,-4,12,-2,-2,-1,7,0,2
1461663222081317,-1,14,-13,-21,-8,-2,-4,-1
1461663222081317,-3,2,10,16,4,-4,-4,-2
1461663222083298,-3,14,4,0,2,-1,-2,-2
1461663222083298,3,6,-2,1,-3,3,1,2
1461663222096302,5,-2,3,5,2,1,0,1
1461663222096302,-9,-15,-15,-10,-2,-4,-1,-2
1461663222098326,-7,-21,0,-1,-1,-1,0,-1
1461663222098326,-10,-16,-3,2,2,4,0,-2
1461663222111321,5,0,-3,-6,-4,-7,-2,1
1461663222111321,2,6,-1,-4,-3,3,-1,-2
1461663222117325,2,8,2,0,2,-1,0,-2
1461663222117325,1,-3,-1,-4,-1,2,-1,0
1461663222133381,0,-11,3,6,2,1,-1,-2
1461663222133381,3,-6,0,-3,-3,-2,-1,-2
1461663222140387,1,0,-3,1,-1,4,-2,-1
1461663222140387,0,1,1,-2,3,0,-3,1
1461663222156354,-4,-6,2,1,2,-1,-1,-3
1461663222156354,3,-2,-1,-2,-2,-6,-1,-2
1461663222159400,-1,-7,-3,-4,-5,-5,-3,-4
1461663222159400,-2,-1,1,-3,0,4,1,2
1461663222171378,0,-6,5,5,1,-3,-1,2
1461663222171378,1,-6,-1,9,4,0,1,0
1461663222177415,2,3,-5,-3,-3,-2,1,0
1461663222177415,-2,-5,0,-8,-3,1,0,0
1461663222193393,1,-5,-4,12,7,2,3,3
1461663222193393,-1,-1,-8,-11,-7,-1,-2,-1
1461663222201400,-3,-8,3,-2,-5,-3,-2,-1
1461663222201400,5,-1,2,11,4,-1,1,-1
1461663222216410,-5,-2,1,-4,-1,0,-2,-2
1461663222216410,-1,4,2,2,-2,-1,-2,-3
1461663222218390,-4,0,-8,-5,-3,0,-1,-3
1461663222218390,-3,0,-1,-7,-5,-4,-1,-1
1461663222230419,6,4,1,0,0,-2,-2,0
1461663222230419,-1,-4,-2,-3,-3,-1,-2,-2
1461663222237413,-7,-2,-2,-2,-1,-4,-3,-2
1461663222237413,3,8,0,4,0,-4,0,-1
1461663222253408,-5,-13,-2,0,0,-2,-1,-1
1461663222253408,0,-2,0,-2,-1,1,0,1
1461663222267475,2,-3,-2,-3,-4,-1,0,1
1461663222267475,-3,-5,-1,3,1,-1,-1,1
1461663222276481,3,5,1,-3,0,-1,-1,-2
1461663222276481,0,-1,2,-1,1,-1,1,0
1461663222278481,-4,-2,1,8,1,0,1,-1
1461663222278481,-3,-2,-2,-4,-2,-1,-3,-2
1461663222290452,1,-4,-5,-6,-5,-1,-2,0
1461663222290452,1,-2,-1,5,2,0,1,0
1461663222299443,1,2,-2,0,1,2,0,-2
1461663222299443,-2,-2,1,0,0,0,-2,-1
1461663222313454,-2,-2,-3,-13,-9,-3,-1,-1
1461663222313454,1,-2,0,2,1,-1,-2,-1
1461663222320475,1,0,-1,1,0,0,0,-1
1461663222320475,-3,-5,-3,1,-2,0,0,0
1461663222336480,0,-3,-1,-4,0,0,0,0
1461663222336480,2,1,0,-10,-6,-2,-2,-2
1461663222338482,-5,-7,0,-6,-3,-2,-3,-3
1461663222338482,1,-2,-2,2,0,2,-1,0
1461663222350490,-5,-4,-3,-3,1,2,0,1
1461663222350490,0,-6,2,5,2,0,-1,-1
1461663222359484,2,1,1,1,0,-3,1,2
1461663222359484,-8,0,3,5,1,-3,1,-2
1461663222381496,3,5,-1,2,0,-1,-2,0
1461663222381496,-3,-1,-6,-5,-3,-3,-3,-1
1461663222387500,-4,-1,0,-8,-2,-2,-4,0
1461663222387500,1,8,5,12,1,-1,-2,1
1461663222396511,2,4,0,3,1,-1,1,1
1461663222396511,-1,-1,-1,-2,-2,0,-2,1
1461663222398526,2,3,-4,-4,-3,-1,1,-1
1461663222398526,0,-5,-1,-7,-3,-2,0,1
1461663222410582,-2,-6,0,-1,0,1,-2,0
1461663222410582,2,2,-5,-2,-2,-2,0,-1
1461663222419546,-2,-4,-1,9,1,-2,0,-2
1461663222419546,0,-2,-4,-5,-3,-2,-1,1
1461663222433538,1,1,2,-3,-2,-3,0,-1
1461663222433538,-3,-2,2,0,2,1,1,-3
1461663222440561,-1,-1,-5,-2,-2,-2,0,-3
1461663222440561,-1,-4,-3,-5,-1,-4,-1,-2
1461663222456574,-1,0,-2,-5,-6,-2,0,-2
1461663222456574,-2,-5,-2,0,3,0,-2,-4
1461663222458577,-3,-3,-1,1,0,1,-1,-4
1461663222458577,0,-1,1,2,1,0,-1,-5
1461663222470560,-2,-1,-1,1,-2,1,0,-3
1461663222470560,1,2,-1,-2,-3,-1,0,-1
1461663222479567,-1,-2,-2,-1,-1,-1,-1,0
1461663222479567,-4,-1,-5,-11,-3,-1,1,1
1461663222493576,-1,-4,4,10,5,1,0,1
1461663222493576,0,-2,-3,3,-1,-1,1,-1
1461663222501600,2,1,6,5,2,-1,-2,-2
1461663222501600,0,-1,-2,-4,-1,0,-2,-1
1461663222515654,-2,0,1,-1,0,-2,0,0
1461663222515654,-1,1,0,-4,-4,-1,2,-1
1461663222522659,2,0,-2,-3,-3,-2,-1,-2
1461663222522659,-2,-2,-5,-7,-1,1,-2,-1
1461663222530621,-1,1,9,24,7,3,-1,-2
1461663222530621,-3,-4,-2,-8,-7,-2,-3,-3
1461663222539610,-4,-6,-3,1,0,2,-1,-1
1461663222539610,0,-5,-2,0,-2,-1,1,0
1461663222553626,2,-4,-6,-9,-4,-2,-2,-1
1461663222553626,0,0,0,-3,-3,-3,-2,-1
1461663222560654,1,3,-1,-4,-4,-2,0,0
1461663222560654,-5,0,5,4,1,-1,0,0
1461663222576651,0,-5,-5,-5,-2,-1,1,0
1461663222576651,3,4,-2,1,1,0,0,-1
1461663222582655,-2,0,-4,-5,-3,-2,-3,-2
1461663222582655,1,0,0,1,-1,-2,0,2
1461663222598667,-4,1,-2,-5,-2,-3,-1,1
1461663222598667,-2,-1,1,2,1,0,0,-1
1461663222600654,1,0,1,-3,-3,-3,-1,-1
1461663222600654,0,-3,-2,-4,-2,-2,0,-1
1461663222613662,-1,-3,-1,5,2,0,0,1
1461663222613662,-2,0,-2,-2,0,0,-2,-2
1461663222620670,-4,-5,-2,-3,-1,-1,-2,-2
1461663222620670,1,0,-4,-3,-4,-2,-1,2
1461663222635692,-2,1,0,-6,-5,-2,-3,-3
1461663222635692,0,-1,2,4,-1,-2,0,-2
1461663222642716,-2,-2,-4,-4,-2,1,0,-4
1461663222642716,-2,-1,0,-3,-2,-2,-3,-2
1461663222649705,-1,-1,-3,-1,2,1,0,0
1461663222649705,-2,-5,-2,-1,3,0,-1,-1
1461663222659714,-3,-3,6,10,2,0,-3,-1
1461663222659714,3,1,-2,2,-3,-2,0,-1
1461663222673703,0,1,-2,-2,-5,-4,0,-1
1461663222673703,-2,-4,-2,-3,-2,-1,-1,-1
1461663222679727,-2,0,-3,-5,0,-1,0,-2
1461663222679727,-1,-2,2,2,0,1,-2,0
1461663222696722,-1,2,0,-4,-2,-2,-2,0
1461663222696722,-2,0,1,0,-2,-1,-2,0
1461663222702742,0,-1,-4,-3,-3,-3,-2,-2
1461663222702742,-3,-2,1,0,0,1,1,1
1461663222718775,0,0,-1,-4,-3,-1,-3,-1
1461663222718775,2,-2,-1,0,0,-1,0,0
1461663222720751,1,1,0,2,0,-1,0,1
1461663222720751,-3,0,0,0,-2,-1,-2,-1
1461663222733759,-2,-6,-2,-1,1,-1,1,-2
1461663222733759,0,-1,-3,-5,0,-3,-2,-1
1461663222739789,-3,-3,2,6,-1,-1,0,-2
1461663222739789,-3,-1,0,7,3,-1,-1,-2
1461663222755800,-1,-2,1,0,-2,-1,-1,-1
1461663222755800,0,3,-4,-10,-8,1,-2,-2
1461663222762781,-2,-5,-1,0,-3,-1,0,-1
1461663222762781,-3,-2,-3,0,0,0,-1,0
1461663222778837,0,2,4,7,5,1,-1,0
1461663222778837,-2,-3,-2,-1,0,-1,-1,-3
1461663222780793,-3,0,-1,-10,-5,-1,-1,-2
1461663222780793,-1,-1,-1,-3,-3,1,1,1
1461663222793852,-1,-1,-3,-4,-2,0,0,-1
1461663222793852,0,-1,-1,-1,-2,-3,0,-1
1461663222799791,-1,-1,-2,-1,-2,-4,-2,0
1461663222799791,-2,-1,-3,2,3,0,-1,-1
1461663222815863,1,3,-2,-2,-1,-1,-1,-1
1461663222815863,-1,0,0,0,-2,-1,-2,0
1461663222822868,-2,-1,-6,-4,-4,-1,0,-1
1461663222822868,0,-1,-4,-1,1,-3,0,1
1461663222838822,-3,0,0,-2,-1,0,0,0
1461663222838822,1,-3,0,-4,-4,0,-1,-3
1461663222840823,-1,-1,3,15,9,2,1,0
1461663222840823,-1,0,0,-3,0,0,-2,1
1461663222861896,-2,-3,-3,-5,-2,-1,0,-1
1461663222861896,-2,-5,-2,0,-1,0,0,-3
1461663222862838,1,2,-2,-4,-3,0,0,-2
1461663222862838,-2,-3,-1,-1,0,-1,-1,-1
1461663222875905,2,0,-1,-2,-3,-1,-1,-1
1461663222875905,0,3,0,1,0,-3,-2,-1
1461663222882852,-2,0,-1,-4,-3,-2,-1,0
1461663222882852,-1,-2,2,4,2,-1,0,-1
1461663222898869,1,-1,-3,-3,-4,-3,-2,-2
1461663222898869,0,0,0,1,-3,-2,-1,-2
1461663222900870,-4,-3,-2,-4,0,0,-1,-1
1461663222900870,-1,2,1,-1,-3,1,-1,0
1461663222913880,-2,-1,-2,-1,1,0,0,1
1461663222913880,-1,0,1,3,1,0,0,-1
1461663222919884,1,-1,-1,-4,-3,-1,0,-2
1461663222919884,1,-2,-2,-3,-1,-1,-2,0
1461663222935905,0,-3,1,0,-2,-2,-1,-2
1461663222935905,-2,-4,-3,-5,-2,-1,-1,-1
1461663222942910,-2,-1,1,5,1,0,-1,-2
1461663222942910,-1,-4,-2,-4,-1,-1,0,-1
1461663222958917,0,-2,-5,-10,-5,-1,-3,1
1461663222958917,-4,-5,6,-2,-5,-3,-2,-4
1461663222960919,-3,-4,-1,8,4,0,-1,-1
1461663222960919,1,3,1,6,-1,-1,-1,-1
1461663222972927,1,-1,0,5,2,-1,-1,0
1461663222972927,0,0,-5,-8,-2,2,0,0
1461663222979920,0,1,-2,-9,-7,-3,-2,-2
1461663222979920,-2,-2,-2,-4,-2,-3,-3,0
1461663222995943,0,0,-4,-5,-2,-2,-2,2
1461663222995943,0,-1,0,3,0,1,-1,-1
1461663223002953,-4,0,-1,-3,-1,-1,1,-1
1461663223002953,-1,0,0,-2,0,1,1,-2
1461663223018986,0,0,1,0,-1,-1,-2,-2
1461663223018986,2,3,-2,3,0,0,0,-1
1461663223020963,-1,-3,-3,-1,-1,0,-1,0
1461663223020963,-1,-7,-4,-8,-2,0,-1,-1
1461663223032975,-3,-2,-1,-5,-2,-3,1,0
1461663223032975,0,-1,1,10,4,-2,-2,-1
1461663223040001,-1,1,-5,-5,-2,-1,-3,-1
1461663223040001,-1,4,0,1,-1,-1,-2,-1
1461663223056032,0,0,-5,-11,-5,-1,-1,0
1461663223056032,0,-3,3,18,8,0,0,-2
1461663223062981,-2,-1,1,2,0,-2,-1,0
1461663223062981,-3,0,3,5,4,-1,-1,0
1461663223079049,0,-1,-5,0,1,-1,0,-2
1461663223079049,0,0,-4,-10,-8,-2,0,-1
1461663223081005,0,-3,-1,-5,-4,-2,0,-1
1461663223081005,-1,2,-1,-4,-2,-3,0,2
1461663223093019,-3,-2,3,5,-1,-2,-1,-3
1461663223093019,0,0,-1,-3,-2,-3,-1,0
1461663223100016,0,-3,0,-1,-1,-1,-1,-2
1461663223100016,1,3,-1,-5,-2,1,-1,0
1461663223116081,-1,-3,0,4,2,1,-1,-1
1461663223116081,2,-1,-1,0,-1,-2,-2,-1
1461663223124044,-2,-1,-3,-5,-2,-2,-2,-3
1461663223124044,-2,-1,-2,-1,-3,-4,-1,0
1461663223139161,-2,0,-5,-6,0,1,0,-1
1461663223139161,-1,-2,8,21,7,3,1,0
1461663223141142,-1,1,0,-4,-1,0,-2,-1
1461663223141142,-6,-6,-2,1,-2,-2,-2,-2
1461663223153170,-1,2,2,-1,3,1,-1,1
1461663223153170,-1,-1,-10,-23,-8,-3,-1,-2
1461663223160175,-4,-4,2,7,-2,-2,0,-2
1461663223160175,-2,-2,2,6,1,-2,1,1
1461663223184177,1,2,1,4,3,1,0,1
1461663223184177,0,-1,-7,-11,-4,-1,-3,-3
1461663223185178,-3,1,-4,-4,-2,-1,0,-2
1461663223185178,-2,-1,-3,-9,-3,0,-1,1
1461663223199185,-1,-4,1,1,-3,-3,-2,-3
1461663223199185,1,0,-1,1,-1,-1,0,-2
1461663223201186,0,-2,-1,0,-1,-2,-1,-1
1461663223201186,5,7,-1,0,0,-3,0,0
1461663223221228,-2,-8,-1,-1,-2,-1,0,-1
1461663223221228,-3,-3,-5,-5,-3,-1,-2,-2
1461663223223229,-3,-3,-2,-3,-2,-1,-1,-2
1461663223223229,-7,-4,0,2,1,1,-2,0
1461663223236239,0,5,4,-1,-2,-1,-2,0
1461663223236239,-1,0,-4,-1,1,-1,0,-1
1461663223243233,5,0,0,1,-1,-2,0,0
1461663223243233,0,-1,-2,-3,-2,0,0,-1
1461663223259241,3,4,1,-1,-2,-1,1,-1
1461663223259241,-2,-5,1,5,1,-2,-2,-2
1461663223260242,-2,-1,-2,-2,1,1,-2,0
1461663223260242,0,3,-8,-6,-2,-2,0,0
1461663223273256,0,-4,2,14,1,-1,0,-1
1461663223273256,-3,-1,-3,-7,-3,-2,-2,-2
1461663223281258,-2,-1,4,1,0,1,-1,-1
1461663223281258,1,-2,0,-5,-1,-3,-2,1
1461663223296253,-2,-2,-2,-2,0,-3,-2,-2
1461663223296253,-2,-1,-1,-2,-2,-1,0,-1
1461663223302255,0,1,-4,-3,-3,-1,-2,-1
1461663223302255,-3,-4,-6,-4,-4,2,-1,0
1461663223319273,-1,-1,0,3,1,1,1,0
1461663223319273,2,2,3,3,1,1,1,-1
1461663223320277,-2,0,-3,-8,-4,-1,0,-2
1461663223320277,-1,-2,3,8,4,-1,-2,0
1461663223332306,-1,-1,0,-1,0,-1,-3,-2
1461663223332306,-3,-3,-4,-12,-5,-2,-3,-3
1461663223341313,-1,1,1,10,4,1,0,-1
1461663223341313,0,0,2,2,-1,0,1,-2
1461663223356328,-1,-2,-3,-1,-1,0,2,1
1461663223356328,1,1,0,-6,-2,-2,-2,-1
1461663223362328,-2,-2,-3,-5,-2,-3,-1,-3
1461663223362328,-2,-1,2,6,2,-1,0,-1
1461663223379311,0,1,-1,1,-1,0,0,-1
1461663223379311,0,1,-1,-2,-2,0,-2,-3
1461663223380312,0,-2,-1,-2,-2,-1,-2,0
1461663223380312,-2,-2,1,-2,-3,-3,-2,0
1461663223392360,0,0,-2,-6,1,1,1,0
1461663223392360,-3,-1,-2,-1,-2,-1,0,-2
1461663223401342,-3,-3,1,8,1,0,-1,-2
1461663223401342,0,1,1,0,2,1,-1,0
1461663223416336,-1,-2,-3,-2,-2,-2,-2,-2
1461663223416336,-4,-3,-1,-2,-4,-4,-2,-4
1461663223422356,1,1,-6,-12,-1,-1,-1,-1
1461663223422356,-2,-3,0,4,-3,-1,-1,-2
1461663223438367,0,2,5,7,2,0,-1,-1
1461663223438367,0,0,1,4,0,-2,-2,-1
1461663223445387,-1,-2,-1,-4,-5,-2,-1,-1
1461663223445387,-1,-1,-6,-14,-3,-1,-1,1
1461663223452377,-2,-4,-1,10,5,0,0,-1
1461663223452377,-1,-3,-4,-1,-1,0,-1,0
1461663223469378,-1,0,-2,-2,0,2,-1,-1
1461663223469378,0,5,4,6,0,-2,0,-1
1461663223476432,-3,-8,-2,-7,-4,-1,-1,-1
1461663223476432,0,2,-2,-4,-5,-2,-2,-2
1461663223482383,-3,-6,-3,-5,-3,-1,0,-1
1461663223482383,0,0,-3,-7,-1,1,0,-1
1461663223499397,3,3,4,5,-3,-4,-3,1
1461663223499397,0,-5,1,3,1,-1,2,-3
1461663223505399,-4,5,-3,-2,-2,-3,0,0
1461663223505399,0,5,-5,-8,-5,0,2,-2
1461663223512405,-1,-1,0,-5,-2,0,-2,-2
1461663223512405,7,1,2,5,7,2,9,4
1461663223521411,-4,-11,-1,3,1,-4,-13,-1
1461663223521411,-8,-4,7,8,0,-1,-3,-3
1461663223536422,1,1,-9,-11,-6,0,-6,0
1461663223536422,-2,-3,6,11,2,1,4,0
1461663223542425,-2,1,-1,-7,-3,-3,6,-2
1461663223542425,3,-4,1,4,3,-2,-8,1
1461663223558437,-1,-1,-3,-5,-3,-3,1,-4
1461663223558437,-1,2,-3,-10,-6,-2,-7,-3
1461663223565443,-2,0,-7,-11,-4,0,3,-1
1461663223565443,-2,-4,6,8,-1,-1,0,0
1461663223581463,-1,-10,2,3,1,-3,1,3
1461663223581463,-7,-6,-6,3,2,-2,-1,-4
1461663223583463,2,1,6,4,1,0,-1,-2
1461663223583463,1,5,-3,-8,-2,0,0,-3
1461663223595471,3,6,-9,-19,-6,0,4,0
1461663223595471,-2,-3,1,7,0,-3,-9,-5
1461663223602476,1,3,9,6,-1,5,24,6
1461663223602476,5,2,-6,14,8,-1,-22,-1
1461663223618480,2,5,2,1,-4,-7,-10,-6
1461663223618480,-4,-4,6,5,6,-3,-16,-6
1461663223625484,-4,3,-12,-8,2,3,0,-3
1461663223625484,-2,-3,-1,-4,0,7,42,7
1461663223632550,4,3,7,8,-2,1,-9,3
1461663223632550,2,1,-16,-6,1,-2,1,-2
1461663223641527,4,3,4,7,1,0,-17,-3
1461663223641527,-5,-2,-8,-23,-10,1,18,3
1461663223655508,-7,-17,-7,-18,-4,0,1,-2
1461663223655508,5,29,17,23,1,-6,-16,-7
1461663223662513,11,-17,-11,4,2,-16,-22,-4
1461663223662513,-12,3,12,25,5,-7,-16,-4
1461663223678542,13,9,-7,-36,-9,1,15,10
1461663223678542,-15,-40,-22,-22,-12,12,27,3
1461663223686528,1,8,40,40,10,4,-6,-1
1461663223686528,1,-13,-18,-14,-1,-2,8,0
1461663223701552,6,33,13,37,20,18,75,17
1461663223701552,18,28,-5,13,5,2,-55,-1
1461663223703552,-6,1,-9,-28,-19,-30,-38,-20
1461663223703552,-13,-7,-17,-38,-27,-14,-37,-7
1461663223715588,11,4,20,39,23,8,-2,-4
1461663223715588,-3,14,-10,-27,-9,1,38,4
1461663223722554,1,-14,-9,5,3,5,8,10
1461663223722554,2,1,-4,-31,-1,18,39,4
1461663223738604,-29,-6,2,8,-9,-4,-34,-12
1461663223738604,4,-29,9,15,7,-18,-5,-3
1461663223745608,4,9,-11,-28,-18,-11,12,10
1461663223745608,10,14,20,-12,-14,-11,2,12
1461663223761622,-4,-14,-40,-22,6,-4,-60,-10
1461663223761622,-18,-16,-12,30,0,-2,-3,-22
1461663223763583,-6,-3,1,-17,-2,13,43,14
1461663223763583,-10,3,-1,14,-3,-6,-17,-5
1461663223775615,6,22,4,-13,-19,-8,-4,-6
1461663223775615,-25,-36,4,-20,14,-3,-22,-9
1461663223784598,4,57,13,20,6,8,30,-1
1461663223784598,-12,-85,-18,50,25,27,38,1
1461663223798622,-2,0,3,9,8,12,18,8
1461663223798622,4,-16,-14,-22,-10,-9,-45,-17
1461663223805627,11,4,0,-51,-31,-21,-14,0
1461663223805627,7,16,-3,22,12,-22,-37,6
1461663223821682,13,2,1,7,-10,-28,-13,-19
1461663223821682,-5,6,1,-24,-5,30,51,15
1461663223823688,-25,-39,-11,14,17,17,4,1
1461663223823688,-28,17,-7,0,-10,-10,3,-4
1461663223835669,-11,-40,-22,-36,-10,11,16,2
1461663223835669,12,44,41,48,-2,-10,-26,0
1461663223844666,-4,33,-13,-6,0,-24,-12,-20
1461663223844666,6,107,0,-29,-14,-11,-8,7
1461663223858708,3,68,25,18,2,5,-2,3
1461663223858708,13,2,-24,-28,14,21,37,9
1461663223866656,-15,-94,12,25,6,20,10,-7
1461663223866656,15,-60,-18,-35,-3,8,20,9
1461663223880681,-13,89,26,65,16,-1,-5,16
1461663223880681,-1,10,-4,-30,-21,-19,-34,-22
1461663223889679,0,2,-1,-40,-21,6,66,11
1461663223889679,11,-34,-3,72,51,11,-47,0
1461663223895709,13,-80,20,-59,-29,-41,-74,-16
1461663223895709,-7,-73,-14,50,24,0,-34,6
1461663223904691,-3,-17,0,0,-3,5,42,14
1461663223904691,-9,38,4,-33,-21,8,10,-10
1461663223918696,-18,11,-25,-24,7,32,51,12
1461663223918696,-1,21,31,33,-2,-14,-65,-14
1461663223925700,-7,12,-2,-19,-18,-40,-76,-42
1461663223925700,4,3,0,26,20,5,44,10
1461663223940711,-5,3,-16,7,-2,-4,-22,-10
1461663223940711,-5,-14,-4,-50,-20,-6,56,-7
1461663223971729,26,5,-47,-75,-17,23,-46,11
1461663223971729,-3,17,77,58,20,-26,-19,-4
1461663223972730,16,-2,1,54,44,16,44,18
1461663223972730,3,15,-9,-14,10,28,60,9
1461663223974731,6,9,0,3,3,4,33,10
1461663223974731,22,10,14,-61,-21,7,-71,-5
1461663223978734,-17,-26,0,17,-1,-35,-31,-8
1461663223978734,18,-14,17,23,-1,-12,-12,-5
1461663223984738,1,1,7,6,-1,20,52,13
1461663223984738,-24,-7,-10,-37,-14,17,-4,2
1461663224001750,-33,-5,0,47,18,-16,-29,-14
1461663224001750,6,-3,-33,-26,4,19,76,11
1461663224002751,-22,-3,34,-65,-21,21,-27,-22
1461663224002751,37,-17,-16,82,34,-20,-53,23
1461663224015774,7,-6,-14,-29,-25,-39,-47,9
1461663224015774,5,-5,-1,-6,-20,-39,-39,-6
1461663224022765,-16,0,-26,-31,-7,28,40,6
1461663224022765,-9,12,4,7,17,10,2,-28
1461663224038797,27,8,-15,-34,-22,-2,11,-12
1461663224038797,-6,-10,10,-33,3,13,17,3
1461663224044820,-12,0,-26,26,16,7,28,1
1461663224044820,16,10,22,76,42,16,12,22
1461663224061851,6,-2,-7,-14,-14,-12,-2,3
1461663224061851,-23,-6,-2,-68,-41,15,55,4
1461663224062809,30,0,83,110,49,6,-69,-7
1461663224062809,-36,8,-66,-26,-21,-38,14,-10
1461663224074862,14,-7,-22,-34,-11,5,-28,-9
1461663224074862,49,-10,0,17,6,29,58,57
1461663224083808,-28,7,-38,-10,-19,-52,-94,-31
1461663224083808,-5,-2,16,-26,-25,-18,29,-1
1461663224099819,-41,-1,-33,-120,-30,38,101,8
1461663224099819,-12,-6,39,73,21,-11,-74,-36
1461663224104823,48,-7,26,58,35,-5,17,18
1461663224104823,23,7,22,-51,-23,-19,-44,-5
1461663224121894,-26,9,-36,-47,-25,0,22,-16
1461663224121894,65,1,-27,-39,-2,-3,-13,4
1461663224122854,-31,10,18,80,52,14,3,2
1461663224122854,-75,3,-29,-28,-11,4,19,-14
1461663224134844,7,-2,15,-69,-32,54,100,19
1461663224134844,-58,-8,4,-23,-17,-29,-106,-37
1461663224143915,76,-11,-10,61,37,-50,-29,28
1461663224143915,-71,-4,-25,-65,-15,13,32,-25
1461663224158916,18,-12,18,-29,18,58,-3,27
1461663224158916,-7,-13,-35,52,-2,-27,-30,14
1461663224164925,37,-14,-5,-46,-43,-53,-46,-20
1461663224164925,42,-9,10,9,11,30,66,14
1461663224181890,-18,-2,10,4,4,-19,-115,-15
1461663224181890,-82,-22,-1,-33,-31,-35,-2,-33
1461663224183891,-22,-8,-38,-61,-23,8,-7,-17
1461663224183891,5,-4,1,10,-4,8,46,12
1461663224194945,34,-2,38,76,24,19,29,2
1461663224194945,16,-24,4,30,34,17,2,-1
1461663224203893,-30,-6,-9,14,-5,-7,12,-10
1461663224203893,4,8,-18,-73,-13,11,-21,-20
1461663224217922,23,5,62,21,1,-18,-25,16
1461663224217922,-1,-15,-25,-62,-16,-11,26,21
1461663224224967,-19,-4,2,52,27,40,62,-1
1461663224224967,-63,30,-2,30,28,37,-43,-52
1461663224242067,-26,13,-23,5,-1,-49,-10,23
1461663224242067,63,-24,5,-13,-19,-26,-96,-4
1461663224244041,71,-7,11,-45,-28,-16,-9,-9
1461663224244041,-30,18,4,-25,-17,4,-16,19
1461663224255077,-24,10,-12,35,7,-18,-14,-16
1461663224255077,-19,-22,7,-7,-7,-6,15,4
1461663224272032,23,-13,-17,-16,-6,0,2,-11
1461663224272032,-2,10,-3,-41,-35,-32,-43,0
1461663224278093,-41,19,27,12,19,14,46,13
1461663224278093,58,-30,-10,26,24,26,38,3
1461663224285040,18,-5,16,23,13,11,-28,-20
1461663224285040,-30,12,-2,3,-2,-13,16,2
1461663224301063,-21,11,-15,-21,-15,-5,-16,11
1461663224301063,42,-20,8,6,14,7,22,23
1461663224303053,-10,3,1,4,7,12,-1,-16
1461663224303053,73,2,17,-31,-9,15,17,-1
1461663224315119,-41,2,-14,59,23,-13,-2,0
1461663224315119,17,-8,4,-3,-13,-10,-33,-7
1461663224324068,-17,5,-12,-29,-11,7,49,23
1461663224324068,-42,8,-1,16,6,0,53,24
1461663224339186,-13,7,-6,-8,-1,0,-92,-28
1461663224339186,30,-13,10,-18,-13,-24,-14,-10
1461663224345231,11,-3,4,-1,-5,4,-24,-7
1461663224345231,-17,5,11,-18,-17,-16,0,-1
1461663224361242,2,4,-3,-6,21,16,51,14
1461663224361242,1,-6,-4,74,43,26,42,6
1461663224363185,6,4,-1,-22,-10,-1,-4,-5
1461663224363185,-3,2,-4,11,1,-8,-23,-8
1461663224375252,11,1,-3,-10,-12,-11,0,-7
1461663224375252,4,-4,3,-15,-7,2,5,15
1461663224384209,-9,-2,-7,-20,-8,-9,-11,0
1461663224384209,-19,5,-2,28,6,-11,-19,-11
1461663224398222,17,0,0,-2,-3,2,-2,-7
1461663224398222,3,3,-8,-19,-10,-45,31,12
1461663224405227,-6,6,-4,-1,-7,43,25,4
1461663224405227,-16,-92,-4,-4,4,23,-65,-5
1461663224421285,8,4,-8,4,-12,-43,-13,-17
1461663224421285,-22,127,5,-10,-1,22,-1,-13
1461663224428247,-17,120,-5,-7,-10,-42,-21,-1
1461663224428247,38,127,-14,-34,-11,-11,20,16
1461663224435248,8,82,24,25,0,10,11,-9
1461663224435248,-32,127,-31,15,22,3,5,-9
1461663224444259,-40,47,20,-13,-6,-3,0,4
1461663224444259,33,-82,1,40,17,7,6,9
1461663224458311,20,-107,-7,-32,-8,-6,0,2
1461663224458311,-13,-3,6,-8,-9,6,4,-10
1461663224465316,-25,-101,-6,-11,-1,3,-8,2
1461663224465316,26,-128,-11,-4,-7,-12,-12,1
1461663224481277,23,-128,8,11,5,-17,-10,-7
1461663224481277,-10,-80,-1,-14,-1,17,0,-9
1461663224488280,-34,-42,-16,-5,1,-15,2,8
1461663224488280,3,-95,1,4,-4,-31,13,3
1461663224495286,11,-29,-10,2,0,48,13,-13
1461663224495286,-20,24,7,-3,1,16,-10,-13
1461663224504292,6,10,1,-2,-9,-24,-29,11
1461663224504292,21,46,10,16,4,-9,-1,8
1461663224518297,12,60,-6,0,3,2,3,-7
1461663224518297,-23,85,-7,-9,-12,-8,6,-13
1461663224525299,-19,71,-2,0,-4,17,12,4
1461663224525299,24,83,-1,2,7,-4,0,8
1461663224541379,17,40,-13,-20,-3,-1,5,0
1461663224541379,-12,-40,21,27,11,4,1,-1
1461663224547330,-8,14,0,14,10,2,2,9
1461663224547330,15,6,-6,-10,-10,3,-3,-3
1461663224564327,8,3,10,5,-3,-1,-2,0
1461663224564327,-6,61,4,-6,-4,0,5,-2
1461663224565328,-6,47,3,1,3,2,-6,-2
1461663224565328,15,56,-2,1,-1,6,-2,-3
1461663224578405,0,-1,-7,-8,-5,-4,-3,-3
1461663224578405,-16,-11,-1,-9,-8,-16,-4,-2
1461663224585405,-5,-56,-6,-4,-1,3,-1,4
1461663224585405,11,-6,5,5,1,4,-1,3
1461663224601384,-3,-26,-4,5,1,-24,-5,-1
1461663224601384,-11,-20,-6,-7,-3,27,6,-4
1461663224607387,-2,-19,3,5,6,16,7,2
1461663224607387,7,-14,-2,2,0,-8,0,0
1461663224624399,3,-1,0,7,5,23,7,-3
1461663224624399,-7,-5,-3,-7,-3,-6,1,-2
1461663224625385,-5,12,-2,-4,-3,-2,0,4
1461663224625385,4,-1,1,6,1,-2,0,3
1461663224638399,2,3,-5,2,-2,-14,-2,-2
1461663224638399,-4,17,0,-6,-5,-9,-4,0
1461663224645404,-4,11,-1,2,1,1,0,2
1461663224645404,6,1,1,5,-2,-5,-1,-3
1461663224661413,3,9,-1,0,-1,0,-1,-2
1461663224661413,-5,10,-1,-11,-6,3,-1,-2
1461663224667412,1,-3,-3,-8,-5,-5,-3,-1
1461663224667412,-4,-9,4,9,4,7,-3,-4
1461663224684451,3,7,-3,1,0,-2,-2,-3
1461663224684451,-4,-1,-6,-6,-3,-3,-1,1
1461663224685413,-3,-2,-1,-4,0,-2,-3,1
1461663224685413,4,-4,-2,-7,-3,1,0,-1
1461663224698435,1,-2,-2,-2,-5,-2,0,-1
1461663224698435,-3,-9,4,12,2,-5,-1,-1
1461663224705466,-4,-18,-1,4,2,5,-2,2
1461663224705466,1,-5,4,2,2,4,1,0
1461663224720450,0,0,-2,-1,-1,-3,-1,-2
1461663224720450,-2,2,-3,-6,-2,-2,-1,1
1461663224727503,-1,5,2,0,1,-2,-2,2
1461663224727503,1,1,2,1,1,4,-1,-2
1461663224744515,1,-1,-1,-1,-3,-12,-5,-2
1461663224744515,-4,-3,-4,-2,-2,14,2,-1
1461663224745457,-2,1,2,2,1,-6,2,0
1461663224745457,3,-7,-3,-4,-5,1,1,0
1461663224758524,2,0,3,3,2,3,1,-1
1461663224758524,-5,-1,1,-1,-1,-3,-3,-2
1461663224766473,-3,-4,-2,-1,1,1,-1,-1
1461663224766473,-2,-1,-2,-1,-1,-2,0,-2
1461663224781544,-4,-5,-6,-4,-1,-4,-1,-3
1461663224781544,-3,-1,3,3,-2,-4,-1,0
1461663224789490,-2,-4,0,1,2,2,1,-1
1461663224789490,5,1,0,11,2,-1,1,1
1461663224804526,3,8,12,18,10,6,1,-1
1461663224804526,-3,-7,-8,-19,-9,-8,-4,-5
1461663224805499,-1,0,14,29,12,1,1,1
1461663224805499,0,-4,-4,-1,-2,-2,0,-1
1461663224826542,0,-1,-2,-4,-3,0,2,-2
1461663224826542,-2,-1,0,-1,-4,0,-1,-1
1461663224828519,-3,-6,-7,-16,-8,-6,-4,-2
1461663224828519,1,-3,-2,-5,-1,3,1,0
1461663224840552,0,-2,-3,-2,-2,-3,-1,-2
1461663224840552,-2,-5,-2,0,-1,-18,-1,-2
1461663224847546,-2,-4,-7,-10,-3,22,5,-1
1461663224847546,0,-1,1,0,-2,-10,-4,2
1461663224864539,-1,-1,-3,-7,-4,-4,-5,0
1461663224864539,0,2,0,2,1,7,4,0
1461663224865556,0,-5,-4,-2,-1,-6,-2,1
1461663224865556,-1,-2,-3,-3,1,4,2,1
1461663224878588,-1,-1,1,-1,1,-3,-1,-2
1461663224878588,-6,-1,4,1,-1,-4,-4,-4
1461663224885594,-2,-2,-1,0,0,-4,-3,0
1461663224885594,-1,-6,-7,-10,-6,-1,-1,0
1461663224900565,-1,-5,-3,-3,-1,-2,-2,-2
1461663224900565,2,3,9,6,0,1,-2,0
1461663224907594,-4,-4,-5,-6,-1,0,-1,0
1461663224907594,-1,-3,-1,6,1,-1,-2,-3
1461663224924583,-1,-6,-4,-2,-1,2,1,-3
1461663224924583,-2,-2,-3,-5,-3,1,0,-1
1461663224925584,-1,2,2,-1,-3,-5,-1,0
1461663224925584,1,2,0,-4,-2,-1,2,1
1461663224938607,1,-1,-1,0,-1,3,0,0
1461663224938607,-2,-1,-2,1,-1,1,-2,-3
1461663224945597,0,-1,-1,0,0,-2,-2,1
1461663224945597,1,0,3,1,0,-1,0,1
1461663224961607,2,2,0,-1,-2,0,-1,-1
1461663224961607,-4,-5,-6,-2,-1,-2,-1,0
1461663224969626,0,3,1,0,1,-1,-2,0
1461663224969626,2,-2,-2,-1,0,0,-1,-1
1461663225000637,0,-2,1,-1,-3,-2,-2,0
1461663225000637,1,-4,-3,-5,-1,-3,-1,0
1461663225001637,0,-2,-5,-13,-9,-2,-1,0
1461663225001637,2,3,6,13,6,1,0,1
1461663225002638,0,-1,-1,0,0,-2,-2,-4
1461663225002638,-2,-3,-1,4,5,0,-2,-2
1461663225006639,-1,-1,-3,-7,-3,-2,-1,0
1461663225006639,-2,0,-2,-8,-4,-2,-2,-1
1461663225020662,-3,-1,-2,3,2,1,0,-2
1461663225020662,-2,-3,-7,-7,-3,0,-1,-2
1461663225027694,-1,2,-1,-8,-8,-4,-1,-1
1461663225027694,-1,-1,9,26,11,2,0,1
1461663225043680,-4,-5,-2,-2,1,1,0,0
1461663225043680,-2,-4,0,2,1,-1,-1,-3
1461663225045689,-2,-2,-4,0,2,-1,-2,-1
1461663225045689,0,2,-3,-13,-6,-1,-1,-1
1461663225058717,0,0,1,-3,-2,0,1,-1
1461663225058717,-2,2,-1,-3,-2,-1,0,-1
1461663225065695,-2,-3,-1,2,-1,-1,-1,-2
1461663225065695,-3,-1,-2,-5,-3,0,0,-1
1461663225080706,1,1,1,1,0,0,-1,1
1461663225080706,0,-2,-2,-4,-1,-2,-2,0
1461663225095730,0,0,2,4,0,-1,-1,0
1461663225095730,-1,-6,-2,-3,-4,-1,-2,-1
1461663225103727,-3,-3,-5,-9,-5,0,-2,-3
1461663225103727,-1,1,1,0,2,-1,-2,-1
1461663225105710,1,-1,3,5,3,1,0,0
1461663225105710,-2,-5,-5,-5,-1,-2,-2,-1
1461663225117747,0,2,0,-3,-1,-1,-2,-1
1461663225117747,-2,-3,3,5,-1,-1,1,0
1461663225126733,-2,-2,-2,8,4,1,1,1
1461663225126733,-1,1,0,-5,-2,-1,-2,0
1461663225140764,0,-4,-5,-6,-3,-3,-1,-1
1461663225140764,-3,-3,-3,-1,-3,-2,-2,-2
1461663225147740,-2,1,0,-4,-3,-3,-1,0
1461663225147740,-1,-1,-1,-2,-3,-1,0,-1
1461663225164754,-1,-1,-1,0,0,-1,0,-1
1461663225164754,-1,0,-3,-3,-1,-2,-2,-2
1461663225165754,-5,-2,0,0,0,-2,-2,-1
1461663225165754,3,1,-3,-6,-3,-3,-2,0
1461663225177801,3,6,3,0,-1,0,-1,0
1461663225177801,1,-1,3,-2,-2,0,-2,-3
1461663225186782,-1,-1,0,4,4,0,-1,3
1461663225186782,-1,0,3,7,5,1,-1,-1
1461663225200777,-1,-1,-3,-1,0,-1,-1,0
1461663225200777,-2,-3,-3,-1,-2,-2,0,-1
1461663225207784,1,1,0,-13,-8,-3,-3,-2
1461663225207784,-2,-1,-1,10,4,1,0,-1
1461663225223793,-2,-2,-2,3,1,0,-1,-2
1461663225223793,-1,-1,0,2,-1,-1,-3,-1
1461663225225795,0,-1,-7,-9,-3,-4,0,-1
1461663225225795,0,-2,3,0,-7,-2,-1,0
1461663225237803,0,-1,4,5,1,0,0,-2
1461663225237803,-3,-3,-4,-3,-2,0,-2,-2
1461663225246810,-1,2,2,3,1,-1,-3,-2
1461663225246810,-3,-2,-3,-5,-1,-1,-1,-1
1461663225260819,1,1,0,-1,-2,-2,0,-2
1461663225260819,-3,-2,-2,-6,-2,0,0,1
1461663225274830,-4,-5,-2,3,0,-1,1,0
1461663225274830,0,1,-2,-2,0,-2,-1,-1
1461663225283837,-1,-2,-5,-8,-3,-2,-2,-2
1461663225283837,1,3,-3,-1,1,-1,0,-2
1461663225285837,-1,-3,-2,2,-1,1,-1,0
1461663225285837,-1,0,-2,-5,-3,0,-2,-2
1461663225297846,-5,-2,4,3,2,-1,-3,-1
1461663225297846,-1,-3,-1,1,-2,1,0,-1
1461663225306862,2,-1,-1,-2,-2,-2,-1,2
1461663225306862,2,-1,-2,-10,-3,-1,-1,-1
1461663225320862,-2,-1,4,14,3,-1,0,-3
1461663225320862,1,2,1,3,1,-1,-1,-1
1461663225327926,-2,-1,-2,-1,1,2,0,1
1461663225327926,-2,-1,-2,-2,-2,0,-2,-2
1461663225343909,-2,-3,-2,-15,-8,-1,-2,-1
1461663225343909,-3,0,-1,16,5,0,-2,-4
1461663225349882,-2,1,1,3,-1,1,1,0
1461663225349882,-2,-1,0,-2,-1,-2,1,1
1461663225357904,-1,-2,-4,-3,-4,-3,0,-1
1461663225357904,-2,-2,-1,-8,-4,-1,0,1
1461663225366908,-2,-3,-3,-4,-4,-1,-2,-1
1461663225366908,-2,-1,-2,-2,-2,0,-1,0
1461663225380904,1,-1,-2,1,-1,-2,-1,-1
1461663225380904,-3,-4,-1,-3,-2,-2,-1,-2
1461663225387925,2,0,3,3,3,-1,-1,1
1461663225387925,1,-2,0,-2,1,0,-1,0
1461663225402920,1,0,-2,1,2,0,-1,-1
1461663225402920,-2,-3,-1,-8,-5,-1,-2,-4
1461663225409984,-2,-2,-2,0,-3,-2,0,0
1461663225409984,1,1,-2,1,-1,-1,0,0
1461663225425994,1,-1,1,5,2,0,0,0
1461663225425994,-1,3,1,1,0,-1,0,-2
1461663225426944,-3,-3,1,0,-2,1,0,-1
1461663225426944,0,-4,-5,-5,-1,-1,0,0
1461663225442032,-1,-2,0,-4,-2,-3,-3,-1
1461663225442032,0,-1,-2,-2,-1,-2,0,1
1461663225448052,-1,0,2,1,1,0,0,-1
1461663225448052,-1,0,2,-2,-2,-1,0,0
1461663225463063,-5,-5,-10,-19,-6,0,-4,-5
1461663225463063,-2,-2,2,12,4,-1,-1,-3
1461663225470111,0,1,-1,1,3,-1,-1,3
1461663225470111,0,1,2,4,2,-1,-3,-2
1461663225486075,2,0,-2,-1,-3,-1,0,-3
1461663225486075,-1,-3,-3,-11,-5,-2,-2,1
1461663225487076,-2,-1,-2,-3,-2,-2,-2,1
1461663225487076,-2,-1,-1,2,-1,-3,1,-1
1461663225502087,2,-1,-2,1,0,1,1,0
1461663225502087,-2,-2,-4,-11,-6,-1,-3,-2
1461663225508138,-2,-2,0,0,-1,0,-1,-2
1461663225508138,-1,0,1,3,1,-2,-1,0
1461663225523147,0,1,0,3,2,0,-1,-1
1461663225523147,-1,-4,-5,-2,-1,-4,-1,-2
1461663225530097,-2,-1,-3,-3,-2,0,-2,-1
1461663225530097,-1,-1,-2,0,-1,-1,1,0
1461663225546107,0,0,1,2,0,-2,0,-2
1461663225546107,0,1,1,0,-1,-3,-1,-2
1461663225547121,-3,-2,-4,-5,1,-1,-2,-3
1461663225547121,-3,-3,-1,-12,-6,-1,-4,-2
1461663225562148,1,-2,1,20,6,0,-2,-1
1461663225562148,-1,-1,-4,-7,-1,0,1,-1
1461663225568185,2,1,-4,-11,-4,-2,0,-1
1461663225568185,1,0,5,23,8,2,-1,0
1461663225583219,-1,0,-1,-4,-4,-1,-3,-2
1461663225583219,-2,-1,-2,2,-1,1,-1,-1
1461663225590284,-1,-1,2,-1,-2,-3,-1,0
1461663225590284,1,1,-2,-1,0,-4,0,0
1461663225606265,0,0,-3,-7,-2,-1,-3,-2
1461663225606265,0,2,3,7,1,-1,-1,-1
1461663225607238,-2,-2,-4,-4,-2,-1,-1,0
1461663225607238,0,-2,-2,-6,-3,-1,-2,0
1461663225622250,-2,-1,-2,1,-1,0,1,-3
1461663225622250,-1,-1,-1,-6,-3,-3,-1,-1
1461663225628253,-2,-4,-1,4,-1,-3,-2,0
1461663225628253,-1,-4,-3,-3,-1,-1,-1,-2
1461663225643262,0,-1,-1,-3,-4,-3,0,-3
1461663225643262,-1,-3,0,-1,1,0,-2,-4
1461663225650284,2,2,2,14,6,0,0,1
1461663225650284,-4,-4,-3,1,0,2,1,0
1461663225666299,-1,-1,0,-4,0,-1,-1,-2
1461663225666299,1,-1,-6,-5,-4,-1,0,0
1461663225666299,-1,1,-1,0,-2,0,-1,-2
1461663225666299,-1,1,-2,-4,-2,-1,-2,-2
1461663225682292,-1,-1,-1,-2,-4,-2,-1,-3
1461663225682292,-2,-4,1,-3,-1,-1,-2,-3
1461663225688296,-2,-3,-3,-1,-1,0,0,-1
1461663225688296,2,4,3,2,1,0,1,0
1461663225702311,-1,0,-2,-10,-5,-3,-1,0
1461663225702311,-3,0,5,18,6,2,-1,-3
1461663225710318,0,2,2,1,1,0,-1,0
1461663225710318,0,-2,-2,-6,-4,0,0,-2
1461663225726322,1,-1,-4,-5,-4,-2,-1,-1
1461663225726322,-2,-1,0,-7,-3,-2,1,1
1461663225726322,-1,-1,-4,-5,-2,-2,-1,0
1461663225726322,-1,1,0,2,0,0,-1,0
1461663225742332,1,-1,3,8,2,-1,-3,-1
1461663225742332,-2,-5,-2,-3,-2,-2,0,-1
1461663225747336,-2,-2,-1,-2,-3,-2,1,0
1461663225747336,-1,-1,-2,-5,-1,-1,-1,-1
1461663225762405,-2,1,0,0,1,2,-2,0
1461663225762405,-2,0,-1,-3,-2,-1,-2,-1
1461663225770411,0,0,1,-4,-3,0,-1,0
1461663225770411,1,2,-1,-2,-2,-2,1,-1
1461663225786364,-2,-2,-3,-2,-2,0,1,-2
1461663225786364,-1,-1,1,2,-1,-1,0,-2
1461663225786364,-1,-2,-1,-5,4,1,1,1
1461663225786364,-2,-2,2,6,-2,0,-1,1
1461663225801391,0,-1,3,7,1,1,0,-1
1461663225801391,-2,0,-6,-9,-6,-3,-2,-3
1461663225807407,0,1,6,6,2,0,-2,-2
1461663225807407,-2,-2,-5,-9,-1,-1,-1,-1
1461663225822418,0,1,8,19,6,1,-1,-4
1461663225822418,-1,-3,-5,-10,-6,-2,-3,-1
1461663225830396,0,0,2,5,0,-1,-3,0
1461663225830396,0,0,-2,-6,-1,-2,-2,0
1461663225846406,-1,-2,-5,-11,-2,-1,-2,-2
1461663225846406,1,3,0,1,-1,0,-1,1
1461663225846406,-5,-3,-3,-3,-4,-1,-1,1
1461663225846406,1,-1,2,1,-2,-2,-2,-4
1461663225861474,-2,-3,-5,-7,-3,-2,-1,-3
1461663225861474,0,0,0,2,2,0,-1,-1
1461663225867479,-2,-4,-3,-5,-3,-1,-1,1
1461663225867479,-1,-1,-1,0,0,-3,-2,-2
1461663225884445,-2,-4,0,-1,1,-2,-2,-1
1461663225884445,-1,-1,-1,3,1,-1,1,-2
1461663225890495,-2,0,-1,1,-2,-1,1,1
1461663225890495,2,1,-2,0,-1,-1,-1,-1
1461663225906451,-1,0,-5,-12,-6,-3,-2,-1
1461663225906451,-2,0,0,-2,-1,-3,-4,-1
1461663225912467,-1,2,2,5,4,1,1,1
1461663225912467,-2,-1,0,-4,-4,-1,0,0
1461663225921469,0,-2,-5,1,2,1,0,-2
1461663225921469,-1,-2,2,2,0,2,0,-1
1461663225927488,0,0,0,-3,-4,-1,-2,0
1461663225927488,0,-3,-4,0,-1,-1,-3,0
1461663225942499,0,-1,-3,-8,-4,-2,-1,-2
1461663225942499,0,0,-4,-15,-5,-2,-3,0
1461663225950504,-2,-4,4,11,-1,-3,-2,-1
1461663225950504,-2,-1,1,3,-1,0,0,-2
1461663225965502,0,1,-1,6,1,1,0,-2
1461663225965502,0,-1,-1,-1,0,-1,-2,-1
1461663225966492,0,4,2,-7,0,0,-2,-1
1461663225966492,-2,-5,-9,-12,-3,0,-1,-1
1461663225981502,2,6,5,8,1,0,1,-1
1461663225981502,-2,-7,-5,2,0,-1,-1,-1
1461663225987518,2,-1,-5,-9,-5,-4,1,3
1461663225987518,-5,-2,-3,-11,-4,-2,-1,-3
1461663226002529,-1,-4,4,11,-1,-2,-5,-2
1461663226002529,1,3,5,15,6,3,1,0
1461663226010561,-3,0,-2,0,1,-1,-2,-2
1461663226010561,2,-1,0,7,2,-2,0,1
1461663226025572,-3,-1,-5,-12,-5,-3,0,-3
1461663226025572,0,-2,0,-4,-3,0,0,-1
1461663226026547,-3,-4,-2,-1,0,1,-4,-1
1461663226026547,0,3,1,1,-1,1,0,-1
1461663226041545,-1,-2,-3,-6,-1,-1,-1,-1
1461663226041545,0,0,-3,-4,-4,-2,0,1
1461663226047548,-2,-1,-2,-3,-1,-3,0,-2
1461663226047548,0,1,2,2,0,0,-1,2
1461663226062618,-1,-5,2,8,0,-2,-2,-3
1461663226062618,0,1,-2,2,3,1,-1,-1
1461663226070623,3,3,9,6,2,2,2,0
1461663226070623,-1,-3,-2,2,5,1,0,0
1461663226085591,-1,0,-1,1,-1,-3,-1,-3
1461663226085591,1,2,4,7,2,-1,-1,0
1461663226086575,0,5,-3,3,-2,1,-3,-1
1461663226086575,-3,3,0,-4,0,0,-3,0
1461663226102600,-4,-11,-6,-10,-2,0,0,-3
1461663226102600,-4,-5,-3,-4,-5,-3,-2,-1
1461663226107651,-2,-3,-4,-7,-4,-1,-2,1
1461663226107651,1,6,2,2,-1,1,-1,-2
1461663226122660,4,5,-3,-4,-2,0,0,1
1461663226122660,-1,-5,-6,-10,-6,-7,-5,-3
1461663226130622,-4,-1,2,10,3,-1,-3,-2
1461663226130622,-5,-6,-1,0,-2,-1,-1,-2
1461663226145647,-2,-1,-4,-4,0,0,-1,-1
1461663226145647,1,0,1,-1,0,2,3,0
1461663226146619,3,1,-9,-18,-3,1,-1,1
1461663226146619,-3,-4,-1,11,-4,-4,-1,0
1461663226161631,1,-1,1,0,-1,-1,-1,-1
1461663226161631,-2,1,-3,-7,-4,-2,-2,-2
1461663226167634,-1,0,-3,1,0,-2,0,0
1461663226167634,0,-1,4,2,-2,-1,0,-1
1461663226182646,3,1,-1,1,0,2,-1,0
1461663226182646,-3,-3,-3,-1,0,3,-1,-2
1461663226190679,-3,-3,-2,-6,1,0,1,1
1461663226190679,-1,-4,-4,-7,-2,-3,-2,-2
1461663226206676,-2,-2,0,0,-1,-3,-2,-3
1461663226206676,-1,1,0,-2,0,1,-1,-2
1461663226212666,-2,-3,-1,-4,-4,-1,-1,-1
1461663226212666,0,0,0,1,-1,0,-2,-1
1461663226221674,2,7,-5,-3,-1,-2,0,-1
1461663226221674,-3,-8,-2,-4,-4,-3,1,0
1461663226227734,-2,-5,-2,7,1,-1,-4,0
1461663226227734,5,8,-2,-9,-1,0,-2,-2
1461663226244743,-5,-3,5,1,-1,-1,-1,-2
1461663226244743,-9,4,5,14,7,1,-2,-1
1461663226250691,0,-5,-5,-12,-7,-2,2,-1
1461663226250691,-3,-2,1,13,10,1,2,-1
1461663226273737,9,10,8,10,0,-3,-7,-1
1461663226273737,-1,-3,-5,-11,1,-2,-1,-2
1461663226274710,-3,-5,2,4,-2,-3,-3,0
1461663226274710,5,13,-1,-2,2,2,3,2
1461663226281714,1,-4,-3,-9,-6,-1,1,0
1461663226281714,-1,1,1,-5,-3,-1,-1,-1
1461663226287734,-1,2,3,7,5,1,0,0
1461663226287734,-8,-11,-7,-4,-2,-3,1,-4
1461663226304739,-3,-4,-6,-5,-3,1,9,4
1461663226304739,0,-3,-3,-15,-10,-2,1,-2
1461663226310735,4,6,-1,7,3,1,-18,-5
1461663226310735,-1,2,-2,-6,-6,-6,-8,-2
1461663226325762,-6,-18,2,7,3,-3,-5,-2
1461663226325762,1,-1,-5,4,1,-1,6,4
1461663226332808,-6,-3,-3,-13,-12,-6,1,-4
1461663226332808,1,-7,0,12,10,6,1,0
1461663226341767,2,12,3,-19,-6,0,-2,-5
1461663226341767,-5,1,7,17,5,1,-2,-2
1461663226347761,-9,-16,-21,-23,0,0,0,1
1461663226347761,3,-1,5,25,8,3,1,3
1461663226363774,1,1,2,12,5,0,2,-1
1461663226363774,-2,-9,-7,-4,0,0,-7,-4
1461663226370776,9,21,19,12,-1,-1,3,0
1461663226370776,0,3,-13,-21,-7,-1,8,6
1461663226386789,-3,2,-10,0,-6,-3,-4,-3
1461663226386789,-7,-19,-2,18,10,0,-9,-5
1461663226392849,-2,-2,2,2,3,0,-5,-3
1461663226392849,-5,-14,5,-2,-1,9,27,-2
1461663226408861,3,11,-4,-9,-1,8,-2,1
1461663226408861,-12,5,0,-20,-16,-13,-1,-2
1461663226408861,1,-5,-6,6,-3,-8,-16,5
1461663226408861,16,20,-3,9,4,-6,-24,-6
1461663226424817,-14,-14,-12,-39,-16,-17,-15,-9
1461663226424817,6,8,12,-11,-17,-4,1,-1
1461663226429871,-8,-8,19,51,18,4,-2,-4
1461663226429871,10,10,-7,-2,-4,1,4,6
1461663226444888,-28,-38,8,-5,-15,-2,7,-6
1461663226444888,24,39,-10,-35,6,9,36,8
1461663226452847,-9,-35,17,15,-8,-13,-33,-5
1461663226452847,1,14,-3,47,27,7,12,7
1461663226468897,5,6,-11,4,13,10,-7,-7
1461663226468897,3,16,-1,7,-2,1,-8,1
1461663226468897,5,7,-17,-71,-17,-2,33,3
1461663226468897,-34,-46,32,45,0,-8,-30,-18
1461663226483932,7,-6,-3,11,5,4,21,11
1461663226483932,-23,-8,6,-3,-10,0,3,-9
1461663226489935,10,21,-16,-19,-2,12,-15,2
1461663226489935,11,4,-9,-34,-16,-11,16,9
1461663226504947,-7,7,-4,-35,-21,-13,-24,-8
1461663226504947,13,-8,8,28,17,1,-14,3
1461663226512951,-3,6,-34,-6,-6,-14,22,8
1461663226512951,11,-14,2,-32,-14,4,-31,-17
1461663226528955,-33,-8,14,6,-10,-12,4,-13
1461663226528955,-8,-34,-5,11,20,5,-27,4
1461663226528955,-4,9,0,-36,-11,1,10,-12
1461663226528955,-22,-5,-4,21,-3,-3,-6,-9
1461663226552971,40,16,11,16,5,13,10,7
1461663226552971,-13,11,7,8,6,8,22,19
1461663226552971,24,-5,16,81,30,12,-2,15
1461663226552971,-10,8,7,-27,-9,-7,-7,-7
1461663226565023,3,-6,-23,-42,-10,15,54,-1
1461663226565023,23,9,20,11,1,18,5,13
1461663226573028,-16,-6,-29,-15,-4,-27,-33,-14
1461663226573028,10,30,0,-27,-13,-31,-26,3
1461663226587981,-4,8,-10,-30,-6,-8,-7,-5
1461663226587981,16,-25,28,81,19,7,-11,3
1461663226588995,-9,-46,5,-35,-24,12,37,-3
1461663226588995,-2,93,-2,-3,9,12,-12,-6
1461663226604005,2,107,37,55,26,6,-3,4
1461663226604005,16,40,-14,9,3,3,18,9
1461663226610053,-16,-41,3,-25,-11,-13,-36,-10
1461663226610053,-4,-36,-11,-20,-7,1,23,4
1461663226625069,20,-83,12,-13,-9,14,38,21
1461663226625069,-36,-83,-39,22,22,10,12,-18
1461663226633041,-3,-55,9,24,7,0,16,15
1461663226633041,1,-42,-14,-51,-29,-29,-23,0
1461663226648028,25,111,4,9,6,-17,-75,-16
1461663226648028,-7,116,-23,-54,-36,-32,-27,-25
1461663226649024,12,127,31,-3,27,45,10,14
1461663226649024,-22,46,3,75,30,2,9,-6
1461663226664035,-7,-8,-6,-1,-17,-34,-36,-14
1461663226664035,-9,11,-5,-31,-18,-22,-4,9
1461663226670059,-2,1,4,-71,-18,28,50,0
1461663226670059,25,-20,-16,55,24,22,-11,2
1461663226685089,-20,-102,-20,30,17,-20,-24,6
1461663226685089,6,-64,-26,-64,-18,-12,-5,-7
1461663226693094,-13,-2,27,42,8,3,35,7
1461663226693094,20,-24,11,-67,-16,19,-8,1
1461663226708080,-7,-47,-7,53,20,9,10,-7
1461663226708080,7,-3,0,19,19,19,50,6
1461663226709067,-10,17,-2,20,9,20,34,22
1461663226709067,-11,0,-6,-21,-25,-23,-33,-44
1461663226724078,-7,-15,10,-55,-14,-17,-53,-24
1461663226724078,13,-1,4,-11,-8,-24,-79,20
1461663226730098,-2,10,-17,27,4,-20,5,3
1461663226730098,-23,3,-2,-4,8,32,63,43
1461663226747093,39,-12,-32,-51,-36,-20,-21,-15
1461663226747093,-12,-6,8,-6,-18,-12,15,-15
1461663226753156,-21,7,-7,-104,-59,-26,-29,-13
1461663226753156,1,8,46,95,56,18,17,10
1461663226768148,8,-9,11,41,31,6,10,-7
1461663226768148,-31,-3,-35,-62,-24,-7,-21,-24
1461663226769107,26,8,67,54,-29,-29,-32,-4
1461663226769107,-13,-3,-63,-14,37,20,37,19
1461663226784119,-17,-15,22,42,27,27,53,6
1461663226784119,3,2,-6,-39,8,31,-24,-9
1461663226790162,-7,11,-53,-99,-56,-37,-9,-13
1461663226790162,34,-1,26,3,-3,-14,-15,25
1461663226805145,1,-11,-17,79,16,1,37,2
1461663226805145,2,-3,-16,-19,-18,7,80,-10
1461663226813178,-2,1,-20,-12,13,25,-100,-26
1461663226813178,38,-4,13,-17,-20,-36,-42,28
1461663226828207,3,-20,-13,-33,-24,-25,-22,-11
1461663226828207,17,2,34,-2,-13,-32,-7,12
1461663226829166,9,6,-13,43,30,7,2,-4
1461663226829166,-24,2,-24,-112,-48,21,71,-26
1461663226845176,31,-15,40,68,45,27,-17,30
1461663226845176,-15,0,-1,17,0,-11,-37,-14
1461663226850177,-14,2,13,55,25,-8,7,20
1461663226850177,-14,14,15,1,23,13,62,1
1461663226883189,-24,-14,-45,-64,-3,29,5,-14
1461663226883189,1,3,0,49,34,0,-27,-7
1461663226884189,2,4,-16,-34,-9,-5,3,-7
1461663226884189,39,3,-6,1,-8,11,11,20
1461663226888192,-10,-17,17,-9,-6,24,28,-6
1461663226888192,43,-1,-1,6,-2,0,38,22
1461663226889193,-2,6,-9,-6,-4,-24,17,19
1461663226889193,19,-2,6,8,-10,-5,-66,-2
1461663226904204,37,-4,11,-15,-7,-14,3,-5
1461663226904204,-70,2,0,-10,-30,-27,-72,-36
1461663226910208,-2,5,-9,-9,3,-7,-6,-8
1461663226910208,-45,1,-6,33,17,-10,-4,-8
1461663226933225,24,-8,-29,-56,-27,15,43,12
1461663226933225,3,-1,49,71,29,29,40,-3
1461663226934225,-14,4,3,-13,14,15,20,3
1461663226934225,-6,2,-25,10,-15,-19,-27,-6
1461663226948235,7,-2,20,-2,-2,-5,-12,-5
1461663226948235,20,6,14,-3,11,14,0,0
1461663226949236,-17,1,-12,23,17,-1,-27,-12
1461663226949236,-24,-2,-4,-18,-10,-3,10,5
1461663226964246,16,-3,-30,-51,-23,-9,2,21
1461663226964246,-43,7,-14,3,0,-9,65,10
1461663226970262,-8,2,15,4,-2,-23,-79,-13
1461663226970262,17,2,1,-36,-32,5,-27,-10
1461663226985273,-9,-6,9,25,10,32,11,-9
1461663226985273,7,0,2,-8,-2,4,-30,-2
1461663226992305,9,3,-7,12,11,17,38,8
1461663226992305,-11,0,-2,2,-1,-21,-10,-21
1461663227016322,-12,-5,-2,1,-11,-22,-24,3
1461663227016322,17,-1,-3,-39,-12,5,11,5
1461663227016322,4,0,-11,-8,18,6,18,-5
1461663227016322,-7,-1,24,57,16,-2,-10,-2
1461663227024302,2,-6,11,8,16,-1,4,5
1461663227024302,-4,2,0,1,-2,-2,-5,-7
1461663227030306,6,-2,4,28,10,8,6,-3
1461663227030306,-4,3,-2,-32,-6,1,1,5
1461663227045361,-10,-4,-11,-19,-14,-7,-3,3
1461663227045361,-6,0,-6,-8,-4,-29,-37,-13
1461663227053308,1,1,10,6,-2,-17,24,17
1461663227053308,-5,-11,-7,0,0,45,6,-7
1461663227068382,-24,4,-4,-15,-16,17,-23,-4
1461663227068382,11,-2,-4,6,10,-3,28,12
1461663227069322,9,2,4,12,5,47,3,-4
1461663227069322,4,1,5,-10,-8,-30,-21,-5
1461663227084333,-17,-2,-3,7,2,-2,2,-5
1461663227084333,2,-33,-5,-5,-5,-13,-3,1
1461663227090337,-7,-128,-4,2,-4,-6,8,7
1461663227090337,-4,-62,-3,-28,-5,-10,11,-3
1461663227105347,-3,121,-3,-6,6,-14,-13,-9
1461663227105347,7,126,19,60,24,18,0,5
1461663227113352,2,127,-4,-29,-17,-15,-1,-4
1461663227113352,12,103,10,28,13,-1,-7,-3
1461663227136369,-10,127,0,-4,1,-13,4,3
1461663227136369,6,41,-3,-18,-6,7,-10,-12
1461663227136369,-5,18,-7,2,-4,9,45,24
1461663227136369,-31,-128,-8,-15,-9,-9,-7,-13
1461663227144373,0,-89,-8,-3,-8,-20,-45,-14
1461663227144373,-5,-128,-6,-6,-4,-36,-7,2
1461663227150378,26,-82,8,9,4,27,-3,5
1461663227150378,15,-48,-2,-7,0,15,26,6
1461663227165389,-11,-15,6,10,8,23,25,-2
1461663227165389,4,-36,-8,-4,0,25,0,3
1461663227172451,1,-8,0,0,-7,-22,-9,-3
1461663227172451,2,7,3,-7,-5,-12,1,0
1461663227189423,-6,25,4,9,12,-3,-6,-7
1461663227189423,-6,22,-8,-2,3,-3,-4,1
1461663227195468,0,10,0,9,1,-7,-5,-1
1461663227195468,7,23,8,10,3,6,-8,-6
1461663227220474,-8,-2,2,-8,-6,-12,-2,-6
1461663227220474,12,37,3,-9,-3,4,0,6
1461663227220474,-29,-79,-18,-4,-1,-1,-9,-11
1461663227220474,15,5,2,0,-4,-4,-4,-4
1461663227226495,-5,15,-10,-16,-11,-3,3,-2
1461663227226495,-3,17,1,-2,1,4,3,6
1461663227232448,18,31,-4,-2,-2,3,-9,-4
1461663227232448,-18,-22,0,-1,-1,-11,-6,-7
1461663227247450,-3,-16,5,5,-1,-33,-3,-1
1461663227247450,-18,-92,-7,-8,-4,20,4,4
1461663227255511,4,27,11,3,3,14,-1,-2
1461663227255511,2,36,-3,-4,2,25,21,10
1461663227272464,-3,58,-4,3,-2,6,10,9
1461663227272464,-2,56,5,0,1,-11,-7,-2
1461663227273497,2,31,0,1,3,-19,5,2
1461663227273497,5,65,0,5,0,-8,-21,-15
1461663227286486,-6,27,1,2,-4,-6,-1,3
1461663227286486,-4,21,-4,-9,-10,-5,-9,-2
1461663227292497,3,31,7,10,3,0,-2,-2
1461663227292497,6,23,-1,-7,-2,-4,0,-2
1461663227307503,-5,-9,-3,-6,-2,1,-4,-6
1461663227307503,-11,-1,-2,8,0,3,-3,1
1461663227315553,2,29,5,8,8,3,-4,-4
1461663227315553,5,-78,-4,9,3,-8,-1,-1
1461663227330505,-6,-75,-3,-6,-6,-2,-8,-4
1461663227330505,0,27,2,-3,4,8,2,3
1461663227331505,2,72,0,-7,-6,-11,-3,1
1461663227331505,-4,62,-2,-4,-4,-6,-1,-3
1461663227346534,-1,44,-7,0,0,3,2,-1
1461663227346534,1,4,2,1,-1,4,3,2
1461663227352532,5,-36,0,-2,-3,0,-3,-1
1461663227352532,6,-4,2,-1,-1,-3,-1,-1
1461663227367591,0,1,3,2,1,-7,2,-1
1461663227367591,-2,-10,-4,-3,-3,13,1,1
1461663227384557,-2,-47,-1,0,-1,-18,-3,-3
1461663227384557,-2,-9,-3,0,1,28,6,-1
1461663227385558,-7,-15,-4,0,-2,0,0,-1
1461663227385558,3,-11,-1,-2,1,-2,0,2
1461663227390609,0,-10,2,1,-3,-2,-2,-3
1461663227390609,1,-12,-5,1,-2,-11,-2,-1
1461663227405584,-3,-25,-3,0,-4,-1,-1,-3
1461663227405584,-4,-6,-4,-4,-6,-8,-3,1
1461663227412590,0,-16,-5,-10,2,9,1,0
1461663227412590,1,-3,9,10,-2,-10,-3,-3
1461663227427573,-8,8,-7,-15,-3,4,-4,-6
1461663227427573,3,-3,0,11,4,-3,2,3
1461663227435579,-1,-9,-4,-7,0,2,0,-1
1461663227435579,6,11,-1,-8,-5,-4,1,-3
1461663227450605,-12,-11,-3,5,3,1,0,-1
1461663227450605,1,6,2,-5,-4,-3,-4,0
1461663227451590,-4,-19,-5,-2,-4,2,-1,-4
1461663227451590,-4,-5,-7,-6,-4,-3,0,-2
1461663227465600,4,7,2,-5,-4,1,-3,-2
1461663227465600,-4,1,-4,-4,-2,-9,-3,1
1461663227472664,0,0,3,6,1,9,2,0
1461663227472664,-3,3,-1,-5,-2,-8,-4,0
1461663227495680,-1,-5,-2,3,-1,-4,-1,-1
1461663227495680,-2,-2,-4,-4,1,3,0,-3
1461663227496637,1,2,3,-1,0,3,-2,0
1461663227496637,-3,-3,-2,0,0,-4,-1,-1
1461663227510691,5,10,4,1,0,-1,-2,0
1461663227510691,-2,-1,-4,-6,-1,-2,0,1
1461663227511649,5,2,1,2,-3,-3,-2,-1
1461663227511649,-9,-4,-4,-1,0,0,-1,-5
1461663227526645,1,1,2,4,-1,2,-2,-1
1461663227526645,-1,1,3,0,-1,0,0,-1
1461663227532659,-2,-1,0,3,1,-4,-2,-2
1461663227532659,2,3,-4,-6,-2,-3,-1,-2
1461663227547665,1,-2,2,2,2,0,-1,-1
1461663227547665,-6,-7,1,0,2,2,0,1
1461663227555689,-2,-12,-7,4,0,-1,-3,-1
1461663227555689,0,6,4,1,0,0,0,0
1461663227572736,-3,-5,-10,-3,-4,-4,-2,-3
1461663227572736,3,-4,-1,-4,-2,-1,-1,0
1461663227573678,-4,-1,2,-1,0,-1,-2,-2
1461663227573678,2,4,-1,-1,0,-2,0,0
1461663227585702,0,3,3,4,-1,5,-1,-1
1461663227585702,-4,-9,-2,-1,-1,-2,-4,-2
1461663227592706,3,3,2,-2,-1,-2,0,1
1461663227592706,-5,-13,-4,3,1,1,1,-1
1461663227607713,-4,-2,0,-2,-1,0,0,-2
1461663227607713,-2,-2,1,1,1,2,0,1
1461663227615771,0,-2,-1,-4,-3,-1,-1,2
1461663227615771,0,0,-1,-1,-2,-1,-2,-1
1461663227630718,-2,-3,0,1,0,0,-1,-1
1461663227630718,-2,2,-1,-2,-1,-1,-1,0
1461663227631719,4,8,4,4,0,-1,0,-1
1461663227631719,2,6,3,-3,-2,-3,0,-2
1461663227645792,-2,4,-4,-2,-3,-3,0,-3
1461663227645792,-1,6,-2,-3,-3,0,-2,-1
1461663227660797,2,3,-3,1,0,-1,-2,2
1461663227660797,0,5,1,1,1,0,-2,0
1461663227667802,3,4,0,-10,-5,-1,0,-2
1461663227667802,-7,-9,-5,-3,-4,-4,0,-2
1461663227675812,3,0,4,11,3,-1,1,0
1461663227675812,-4,-5,2,21,7,2,0,-2
1461663227690772,-4,-3,-1,5,3,1,0,0
1461663227690772,2,1,2,1,4,1,1,1
1461663227691761,-3,-7,-7,-10,-6,-3,-2,0
1461663227691761,1,-6,-5,-9,-6,-2,-3,-3
1461663227705775,-4,0,1,1,0,-1,-1,-2
1461663227705775,1,5,3,-1,-3,-3,-2,1
1461663227712781,-1,-1,-2,-3,0,-1,-1,-1
1461663227712781,-1,-5,-5,-5,0,0,-1,-2
1461663227727785,-4,-7,-5,-2,-1,-1,-2,-1
1461663227727785,1,2,0,-2,-1,-4,0,1
1461663227734791,4,1,0,1,0,-1,-2,-1
1461663227734791,-9,-15,-1,0,0,-2,-3,-3
1461663227750829,2,0,0,-2,-2,1,0,0
1461663227750829,-3,-4,-3,-1,0,0,-3,1
1461663227751831,-3,-1,0,-1,-2,-2,-2,-1
1461663227751831,2,2,-1,-3,-2,-1,0,-1
1461663227765841,-2,-1,-3,-3,-4,-1,-2,0
1461663227765841,0,-2,-2,-1,-3,0,0,-1
1461663227772846,-4,-2,-2,-3,-2,-1,-1,-2
1461663227772846,0,-3,-3,-3,-2,-2,-1,-1
1461663227795883,-2,-6,-3,-3,-3,-4,-2,-2
1461663227795883,-3,-2,0,2,1,0,-2,-1
1461663227796863,-3,-5,2,2,-2,-1,-2,-2
1461663227796863,2,2,-3,-5,-5,-1,-2,-1
1461663227810893,-1,0,-4,2,1,1,-2,-2
1461663227810893,1,1,0,-2,-3,-4,1,0
1461663227811887,-7,-7,-4,-3,-2,-1,-1,-1
1461663227811887,-1,-3,-1,-1,-1,-2,0,-2
1461663227833900,-4,-2,-1,-12,-8,-3,-2,-1
1461663227833900,-6,-2,5,18,9,2,0,-1
1461663227833900,5,12,0,1,2,-1,1,0
1461663227833900,1,-1,-2,-1,1,-1,-1,-2
1461663227847912,-5,-9,-2,-4,-3,0,1,-4
1461663227847912,-4,2,0,-7,-4,-1,-2,-1
1461663227854943,-1,-2,0,0,-2,-1,-1,0
1461663227854943,0,0,-2,-3,-1,-1,-1,0
1461663227870943,4,5,4,6,4,-2,-1,-2
1461663227870943,1,6,-3,-7,-4,0,-2,1
1461663227877981,2,3,0,-1,0,0,3,2
1461663227877981,1,5,0,-4,-2,-2,-1,-3
1461663227887002,-2,-10,-4,0,-1,-2,0,-2
1461663227887002,3,-2,0,2,0,1,0,0
1461663227893034,-3,-2,-3,-5,-3,-2,-2,2
1461663227893034,-4,-5,-2,1,-1,-1,-1,-2
1461663227908033,-1,3,3,5,2,-1,0,-2
1461663227908033,-1,-3,-2,-6,-2,-2,0,3
1461663227915038,1,-4,-3,-4,-1,-2,-1,1
1461663227915038,-1,-5,2,1,-2,0,-1,-1
1461663227931046,-3,5,-2,-3,0,2,0,-2
1461663227931046,5,15,6,2,-1,0,1,0
1461663227932046,-8,-20,-4,0,0,0,0,-1
1461663227932046,-8,-17,-7,-5,-2,0,0,-1
1461663227947045,2,-3,1,4,1,-2,0,-1
1461663227947045,0,10,-3,-3,-2,0,-2,0
1461663227953049,3,2,2,0,0,-2,-1,0
1461663227953049,-3,10,-2,-2,-3,-3,-3,-3
1461663227968070,-7,-6,-1,-1,0,-3,-2,-3
1461663227968070,2,0,-2,-3,-3,-2,-2,1
1461663227975074,-4,-1,-1,1,2,0,-1,-2
1461663227975074,-3,-18,-2,0,-1,1,0,-1
1461663227991086,4,5,-5,-4,-3,1,-2,1
1461663227991086,-1,-4,-3,-2,0,0,0,-1
1461663227992087,1,5,1,-2,-2,-1,0,1
1461663227992087,0,5,2,0,-1,-2,-2,-2
1461663228007099,-2,-1,-1,-2,-3,0,-1,-4
1461663228007099,-4,-11,-6,-3,-2,-2,-2,-3
1461663228013128,9,20,5,-2,-3,-2,-2,-1
1461663228013128,-1,-8,-7,1,5,3,1,-1
1461663228028140,-7,-12,-1,-1,-2,-1,-2,-2
1461663228028140,-3,-1,0,1,0,2,0,2
1461663228035122,-4,-19,-6,-6,-1,0,0,-1
1461663228035122,7,14,9,7,1,-2,-2,-1
1461663228051118,2,2,0,2,1,0,-1,0
1461663228051118,-7,-19,-3,-3,-3,-2,-2,1
1461663228052119,-1,4,2,6,3,-1,0,-1
1461663228052119,-3,-3,-8,-8,-5,-2,-1,-3
1461663228067157,-1,4,1,0,-2,-2,-1,-2
1461663228067157,-6,-9,-4,-3,0,-1,-1,1
1461663228073197,4,2,-2,-5,-3,0,-1,-1
1461663228073197,-1,2,-1,-5,-3,-1,-1,-1
1461663228088151,3,9,2,-1,-1,-1,0,-1
1461663228088151,-3,-4,-1,-3,0,-3,0,-1
1461663228095155,-2,-3,-2,1,-1,-1,-1,-1
1461663228095155,2,4,-1,1,-1,-2,-1,-1
1461663228111161,-1,-4,-3,-1,-1,0,-2,-2
1461663228111161,1,-4,3,3,-1,-1,0,-1
1461663228118166,-3,7,-2,0,-3,-1,-2,-1
1461663228118166,-4,-9,0,-4,-4,-1,-2,-2
1461663228133250,-2,-12,-7,-2,-1,0,0,1
1461663228133250,-4,-4,-1,-1,1,-1,-1,-2
1461663228134213,0,2,0,-2,0,0,-1,0
1461663228134213,3,10,2,1,0,0,-1,-2
1461663228148237,-1,5,2,2,0,0,0,-1
1461663228148237,-4,-7,0,3,3,1,0,1
1461663228155242,-2,-4,-1,2,1,-2,-1,0
1461663228155242,-4,4,1,-3,-2,-2,0,-2
1461663228171246,5,7,2,-1,-1,-2,-2,-2
1461663228171246,1,6,-1,-6,-5,0,0,0
1461663228172247,0,-1,-2,-13,-6,-3,0,0
1461663228172247,2,-2,2,16,5,2,-1,0
1461663228187255,2,1,0,3,0,-3,-1,-1
1461663228187255,-1,1,-3,2,0,-1,-1,0
1461663228193283,0,-3,-2,-3,-1,-1,0,0
1461663228193283,0,3,-2,-3,-2,0,-1,-1
1461663228208294,-2,6,1,-4,-3,0,-1,-2
1461663228208294,-1,-18,-4,-2,-1,-1,-1,0
1461663228215298,-2,-3,-4,-5,-2,0,-2,-2
1461663228215298,-6,2,4,7,2,-1,1,-1
1461663228230285,-1,-2,-1,1,-1,-1,1,-1
1461663228230285,2,8,2,1,0,0,-1,1
1461663228245310,-5,-1,-1,1,-3,-1,-3,-2
1461663228245310,0,-2,-2,-5,-4,-2,-1,-2
1461663228255317,-2,-2,-1,-5,-3,-2,0,1
1461663228255317,-1,9,5,-2,-3,-1,-1,1
1461663228255317,-5,-9,-5,6,2,0,-2,-1
1461663228255317,0,-2,-2,-7,-2,0,-2,-1
1461663228267318,1,1,-1,5,0,1,0,0
1461663228267318,0,-1,-2,-1,-1,0,1,1
1461663228275350,6,5,1,0,-1,-2,1,-1
1461663228275350,1,-1,-2,-5,-2,-2,-1,-1
1461663228290361,-1,-9,-3,-7,-2,-2,-1,-1
1461663228290361,1,10,-3,-3,-3,-1,-2,-1
1461663228297327,-4,-14,0,-6,-1,-2,1,-2
1461663228297327,-2,-3,0,1,0,0,-2,-3
1461663228306372,0,-1,0,4,1,-2,-1,-1
1461663228306372,-1,-3,-2,-5,-2,-1,-3,-1
1461663228312376,0,3,-1,8,3,-1,2,0
1461663228312376,0,-1,-2,-3,-2,-3,-1,-3
1461663228328350,-3,0,-1,-3,-2,-2,-2,0
1461663228328350,1,-1,0,3,-1,0,-1,-1
1461663228335413,-1,3,0,-2,-1,1,-1,-1
1461663228335413,-1,2,-3,-4,-3,-1,-1,-1
1461663228350378,-1,8,2,-1,-2,-2,-1,-2
1461663228350378,-7,-19,-6,-5,-3,-1,1,-1
1461663228358371,1,0,0,0,1,0,-2,-1
1461663228358371,0,-3,-2,2,1,-1,-2,-3
1461663228373490,-2,2,-1,-4,-1,-2,-2,-1
1461663228373490,-1,2,1,2,-1,-2,-1,-1
1461663228374435,-1,1,2,0,-3,-1,-2,-2
1461663228374435,-1,-6,-3,-6,-4,-1,-3,-2
1461663228388445,1,4,-2,-3,0,1,-1,-1
1461663228388445,-6,-18,-5,-2,0,0,-1,0
1461663228395510,0,-3,-1,5,1,0,0,0
1461663228395510,3,3,-1,-2,-1,-3,0,-2
1461663228410466,-4,-8,-1,-4,-3,-2,-1,-2
1461663228410466,3,11,5,4,0,0,0,1
1461663228417471,-4,-8,-5,-8,-5,-2,-2,-3
1461663228417471,2,2,7,11,6,1,0,-1
1461663228433480,4,4,-4,-8,-6,-3,-2,1
1461663228433480,-5,5,2,4,4,2,-3,1
1461663228434480,-4,-9,-5,6,4,0,0,1
1461663228434480,0,-2,-2,-3,-7,-3,-2,-2
1461663228447486,-2,1,0,0,0,0,-1,0
1461663228447486,3,3,1,1,1,-1,-1,1
1461663228455491,3,4,2,-3,-2,-1,1,-1
1461663228455491,1,0,-4,-8,-5,-2,-2,-3
1461663228470505,-1,-2,1,0,1,1,0,-1
1461663228470505,2,0,-1,-5,-2,-2,0,0
1461663228477541,-2,0,-3,-1,0,-1,-2,-1
1461663228477541,-1,-3,-1,-2,-1,0,-1,-1
1461663228495531,-5,-6,-1,-1,-4,-3,-2,-2
1461663228495531,2,5,1,0,0,1,0,0
1461663228495531,-1,-6,-2,-4,-2,-2,-1,-2
1461663228495531,0,2,1,2,1,-2,1,-2
1461663228524538,-6,-7,-2,-2,-2,-2,-1,-3
1461663228524538,-1,2,-2,7,2,2,1,2
1461663228524538,3,2,0,-1,-1,-1,0,2
1461663228524538,-4,-6,-4,-3,0,-2,-2,-3
1461663228530543,-1,-8,-3,-5,-2,-3,-2,-1
1461663228530543,4,8,4,6,6,1,-1,1
1461663228546554,-3,1,1,-1,-1,1,-2,0
1461663228546554,-2,-1,-2,-4,-3,-2,-1,0
1461663228554559,-1,5,2,0,-1,0,-1,-1
1461663228554559,-1,5,-2,-9,-5,-3,0,-1
1461663228554559,2,-5,1,5,-1,-3,-3,-2
1461663228554559,3,8,-4,0,0,-1,0,-1
1461663228567569,-13,-28,-4,-2,0,0,-2,-1
1461663228567569,-3,-7,-3,-1,-1,0,-1,-1
1461663228575575,3,7,0,-5,-3,-2,-3,-1
1461663228575575,-3,-2,0,-1,-2,-1,-3,-2
1461663228590586,2,4,2,3,0,-1,-2,0
1461663228590586,-1,4,1,-3,-3,-1,0,0
1461663228597636,5,3,1,-1,0,-1,1,0
1461663228597636,0,-8,-5,-2,0,-1,-1,-2
1461663228613649,-1,2,-3,1,1,-2,0,0
1461663228613649,-1,-3,-2,-5,0,-2,-2,2
1461663228614648,-1,2,3,2,-3,0,0,-1
1461663228614648,0,0,-2,-5,-6,-3,-2,-3
1461663228627646,-1,-6,-2,3,2,0,-2,-1
1461663228627646,-2,2,0,-3,-1,-2,2,2
1461663228635652,-1,-13,-3,3,4,2,-1,0
1461663228635652,-5,-10,-3,-6,-5,-3,-3,-2
1461663228650662,1,-1,-4,-8,-6,-2,1,-1
1461663228650662,-1,10,6,7,3,-1,-1,-1
1461663228657664,-4,-9,-2,-1,0,0,0,1
1461663228657664,-1,3,0,-5,-2,0,0,-1
1461663228673691,-1,7,1,1,0,0,-2,-2
1461663228673691,0,0,-2,-3,-4,-1,-2,-1
1461663228674692,-1,7,3,6,2,0,-1,-2
1461663228674692,0,-6,0,2,2,0,1,-1
1461663228687685,-1,-4,-4,-3,-1,-1,-1,2
1461663228687685,-2,-5,-10,-12,-4,-2,-2,-1
1461663228695721,-5,1,6,8,2,-2,-2,-1
1461663228695721,2,3,-2,0,-2,-2,-2,-1
1461663228710761,0,0,2,3,2,2,-1,-1
1461663228710761,0,-1,-1,-1,0,-2,-2,0
1461663228717739,-1,-8,-7,-11,-5,-3,-1,-4
1461663228717739,1,-3,-1,1,1,1,0,-3
1461663228733730,0,16,2,1,-2,-2,-3,0
1461663228733730,-3,-22,-3,2,2,-1,1,0
1461663228734731,-6,-5,-4,-6,-3,0,0,1
1461663228734731,1,11,4,6,1,-1,-2,-1
1461663228747734,1,-6,-5,0,0,-1,-1,0
1461663228747734,-3,2,1,-1,-2,0,-2,-3
1461663228755757,4,10,-1,-9,-5,-2,-1,-4
1461663228755757,-4,-6,-1,10,-1,0,1,-2
1461663228770815,-3,-1,1,1,4,1,0,1
1461663228770815,0,-2,-4,-9,-7,-3,-3,0
1461663228777819,0,-2,-1,2,2,1,1,0
1461663228777819,4,1,-1,-4,0,-2,-4,-2
1461663228793784,-3,-4,-1,-16,-7,-2,0,-2
1461663228793784,-1,-7,-1,10,3,-1,0,-1
1461663228794785,0,1,0,-3,1,-1,-2,-3
1461663228794785,0,0,-3,-3,-1,-2,-2,-2
1461663228807785,-3,-2,0,-2,-2,-2,0,-2
1461663228807785,-2,-3,-2,8,2,0,2,0
1461663228815840,-2,2,-3,-1,-2,-1,0,1
1461663228815840,-1,-5,0,2,1,1,0,-3
1461663228830791,-3,-3,-5,-8,-8,-2,-2,-3
1461663228830791,5,13,3,3,2,2,1,1
1461663228837806,-1,-3,-1,3,3,0,-2,-1
1461663228837806,-9,-5,-3,-5,-2,-2,0,-1
1461663228853817,0,-2,3,-1,0,-1,0,-2
1461663228853817,-4,-2,-2,-11,-5,-2,-1,1
1461663228860867,8,16,7,20,8,1,2,5
1461663228860867,1,-4,-6,-11,-4,-2,-1,-1
1461663228867871,-3,8,6,10,4,-1,-2,-2
1461663228867871,-6,-14,-4,-4,-1,1,-2,-2
1461663228883836,1,-1,0,-7,-5,0,-1,-2
1461663228883836,-3,-8,-1,-3,-3,-1,-2,-2
1461663228890845,0,-5,0,1,-1,-2,0,2
1461663228890845,1,13,-2,-11,-6,-2,-3,-3
1461663228897834,-3,-10,2,20,6,-1,-2,-2
1461663228897834,4,1,3,6,5,2,0,-2
1461663228913849,-6,-6,-1,-10,-5,-2,-2,-1
1461663228913849,-7,-8,-3,0,0,-1,-1,-1
1461663228913849,-1,-3,-1,-4,-5,-3,-1,-3
1461663228913849,-3,-1,1,-6,-4,-3,0,-2
1461663228927856,2,10,0,8,1,0,0,0
1461663228927856,1,-13,-3,0,-1,-1,-1,-1
1461663228935862,-4,-1,-3,-9,-4,-2,-2,-1
1461663228935862,0,0,0,9,2,0,-2,-1
1461663228950873,1,2,-1,-7,-2,0,1,3
1461663228950873,-7,-3,0,-1,-3,-3,1,-1
1461663228957876,-2,-8,-1,-2,2,1,0,-3
1461663228957876,0,6,-7,-10,-6,-2,-2,-1
1461663228973887,0,-4,-3,2,0,-1,-3,0
1461663228973887,-1,5,0,0,-2,-2,-2,2
1461663228980892,0,6,6,4,0,-2,-1,-2
1461663228980892,-9,-28,-6,-1,1,-2,1,-2
1461663228987897,-5,-3,-5,3,3,0,0,-3
1461663228987897,4,8,5,3,1,0,1,2
1461663228994902,-6,-14,-20,-29,-10,-3,-3,-3
1461663228994902,0,-2,8,3,-4,-1,-2,-2
1461663229009912,-1,3,-2,9,3,0,-1,0
1461663229009912,-4,-13,1,-3,0,0,-1,-3
1461663229017920,3,13,-2,-5,-2,-1,-2,-1
1461663229017920,0,4,-6,-20,-10,-3,-3,-2
1461663229033930,4,-3,8,22,8,2,2,1
1461663229033930,0,7,1,2,-2,-2,-3,-2
1461663229033930,-4,-2,-1,-7,-6,-2,-1,-1
1461663229033930,2,3,-6,-3,-2,-2,1,1
1461663229047941,-10,-4,1,-1,0,-2,-4,-2
1461663229047941,3,9,-2,0,1,1,5,-1
1461663229054946,-5,-29,-6,-6,-4,2,6,0
1461663229054946,-4,-5,5,15,6,-3,-6,-2
1461663229070016,-1,0,-1,-4,-4,-1,-7,0
1461663229070016,1,2,-1,8,2,-3,-7,-1
1461663229078025,2,7,-7,-18,-4,-1,-3,0
1461663229078025,2,-9,2,0,-8,-2,1,-2
1461663229093975,-6,-1,-10,-5,-2,0,3,1
1461663229093975,12,19,6,10,10,1,2,1
1461663229093975,14,10,14,16,-4,-1,0,0
1461663229093975,-8,-19,-20,-4,12,3,1,-9
1461663229108001,-10,4,11,12,8,2,0,-1
1461663229108001,2,-5,-2,-6,-2,-1,1,1
1461663229115005,-8,0,1,-10,-7,-2,-1,3
1461663229115005,4,5,-3,-10,-9,0,9,1
1461663229129999,12,1,-7,-4,-1,0,-9,-2
1461663229129999,-16,-26,-10,-5,-4,-4,2,-5
1461663229139004,4,-9,-3,13,7,-6,-7,0
1461663229139004,-2,9,2,-9,-4,0,-11,-8
1461663229153073,-5,6,-3,-10,-6,-4,6,4
1461663229153073,4,2,1,-8,-11,-4,29,0
1461663229161083,-3,-3,-5,-12,-10,0,-19,-6
1461663229161083,6,6,-5,-11,5,-5,-8,6
1461663229176060,6,-8,2,15,-3,-6,-8,-1
1461663229176060,-1,5,9,36,26,6,-7,1
1461663229184068,-8,4,-10,-11,2,0,14,2
1461663229184068,-5,9,12,-19,-14,-2,7,-2
1461663229190071,8,-1,-29,-60,-32,-4,-2,0
1461663229190071,-5,6,32,86,54,13,6,6
1461663229198052,5,7,7,25,19,6,3,-9
1461663229198052,2,2,-13,-19,-1,1,6,-1
1461663229213086,7,17,0,-33,-20,-4,20,5
1461663229213086,6,-12,12,-12,-25,-10,-28,4
1461663229220091,-7,19,-14,23,21,11,0,-4
1461663229220091,4,-16,7,21,9,8,16,4
1461663229244095,8,19,-7,-14,-1,3,11,1
1461663229244095,-31,-12,-6,-41,-29,-21,-15,-11
1461663229245095,-19,1,-4,-2,-13,-21,-42,-14
1461663229245095,3,-2,-3,16,11,7,42,14
1461663229258128,4,2,9,23,18,11,-23,1
1461663229258128,20,2,-16,-27,-10,-8,-10,-16
1461663229259090,-10,-4,2,-44,-21,-14,-2,-3
1461663229259090,11,-4,12,24,2,1,-15,-6
1461663229273099,-6,0,13,29,18,7,12,9
1461663229273099,-4,3,2,7,6,16,20,8
1461663229280163,-1,-24,-3,-19,-12,-4,-2,-4
1461663229280163,14,-1,-3,52,22,2,16,9
1461663229296124,2,13,11,-24,-5,5,28,-3
1461663229296124,-24,21,-36,-28,-11,-3,-44,-13
1461663229297118,19,-77,-27,-43,-9,2,47,14
1461663229297118,-14,6,31,50,-11,-15,-53,-5
1461663229310133,-24,-36,-22,8,5,-14,-28,-19
1461663229310133,1,-23,3,-11,-12,1,-8,0
1461663229318134,16,57,20,7,11,16,21,5
1461663229318134,10,-4,19,35,19,-2,-18,9
1461663229333146,23,-3,-16,-72,-21,13,51,10
1461663229333146,-32,-16,-7,39,7,-10,-52,-19
1461663229340150,-5,4,-4,12,-4,-29,-42,-11
1461663229340150,-20,-3,-16,-78,-14,-5,-34,-20
1461663229356158,-14,16,20,52,5,0,12,6
1461663229356158,22,21,10,-30,-8,14,52,21
1461663229357159,15,2,8,66,12,4,-13,1
1461663229357159,-8,-4,-3,-13,1,6,25,-5
1461663229370169,20,12,-18,-27,-7,7,9,8
1461663229370169,-2,-5,6,-26,1,9,80,14
1461663229378237,-18,-9,-34,-40,0,1,-54,-7
1461663229378237,-11,15,31,68,-1,-31,-60,-23
1461663229393186,-5,-9,6,44,20,-3,-29,-8
1461663229393186,4,-17,-18,-28,-14,1,5,12
1461663229400192,25,5,13,-9,3,15,83,20
1461663229400192,8,-14,-24,-57,-19,6,33,13
1461663229416203,-8,-37,-6,-27,-29,-31,-33,-16
1461663229416203,3,21,23,92,45,5,-17,0
1461663229417204,-24,41,3,-5,0,14,-11,1
1461663229417204,0,49,0,-74,-37,-3,-3,-19
1461663229430213,-18,46,-13,27,20,-9,-32,-1
1461663229430213,17,51,-15,-57,-28,-12,-12,-7
1461663229438216,-6,72,-13,-45,-17,7,15,-2
1461663229438216,41,94,35,73,42,12,43,17
1461663229453227,-36,14,-12,-23,-13,-6,-22,-7
1461663229453227,-7,3,12,12,-4,-6,-4,-3
1461663229460234,-15,-33,-9,-34,-24,4,55,1
1461663229460234,8,-17,0,0,2,16,-20,-1
1461663229476244,26,-88,14,49,21,-15,-23,-2
1461663229476244,-6,-47,-17,-19,-9,-13,-31,-3
1461663229477244,-32,-95,-14,-35,-14,-4,36,-11
1461663229477244,-24,-90,-1,8,3,9,19,-3
1461663229490254,13,-84,42,-31,-17,18,11,15
1461663229490254,10,-14,-36,49,14,-12,-68,-5
1461663229498258,7,-21,-2,-14,-22,-48,-57,0
1461663229498258,3,-29,-33,-40,-6,-15,4,-3
1461663229513328,-33,29,-19,21,-5,-10,-10,-13
1461663229513328,11,40,28,9,18,28,53,11
1461663229520286,18,15,6,-6,9,22,-2,0
1461663229520286,-11,-88,-35,-42,0,6,45,0
1461663229536344,-8,-31,29,17,-13,-10,-32,-14
1461663229536344,11,7,-3,9,4,-8,30,5
1461663229536344,-7,64,22,71,20,-3,-29,-6
1461663229536344,-11,119,-12,-52,-13,30,-13,-5
1461663229550308,10,118,-37,-26,-9,-2,54,-2
1461663229550308,9,69,-5,-29,-21,-39,-25,10
1461663229558303,-14,1,38,28,36,50,61,7
1461663229558303,-11,-45,-30,-14,-13,-25,-48,-17
1461663229573341,-29,-1,5,55,0,-37,-40,8
1461663229573341,9,-31,-16,-76,-29,3,-56,-14
1461663229580352,1,-26,25,5,6,27,112,19
1461663229580352,9,-34,38,-12,-7,0,-91,-2
1461663229604363,-8,-5,-40,20,23,-11,-60,-12
1461663229604363,-1,-32,23,127,52,-18,-13,5
1461663229605336,9,-17,-14,-85,-38,-6,-21,-6
1461663229605336,-8,-14,-15,-31,-5,22,65,-7
1461663229610367,32,-8,49,65,53,22,41,25
1461663229610367,-49,-3,-14,-35,-16,4,22,-20
1461663229618343,16,15,-36,-20,-2,-2,-41,7
1461663229618343,22,-4,19,41,3,8,29,13
1461663229633380,-35,-2,-5,-36,-26,-3,57,6
1461663229633380,-13,-3,-9,-37,-9,24,-15,-8
1461663229640419,39,20,1,-1,-5,-32,-112,-10
1461663229640419,-55,-11,23,-89,-68,-51,52,9
1461663229656385,49,-4,5,67,70,65,-52,16
1461663229656385,21,0,-3,-47,-24,-56,-65,-21
1461663229656385,19,10,-13,-24,-18,-46,-78,-14
1461663229656385,25,-13,13,83,61,9,-27,-6
1461663229670396,-67,3,-12,-128,-66,-13,66,0
1461663229670396,-19,0,43,68,21,43,70,25
1461663229678387,4,1,-7,-30,10,9,-2,-3
1461663229678387,35,-5,-32,58,32,15,11,-11
1461663229693426,11,5,46,36,0,4,12,-18
1461663229693426,24,8,22,4,-3,7,-13,8
1461663229700431,-43,-2,25,65,13,-6,25,4
1461663229700431,-43,-11,14,10,-1,0,9,4
1461663229716413,-26,7,5,-33,-4,-1,-12,-12
1461663229716413,12,-11,-48,-76,-33,16,60,21
1461663229717414,15,-4,-2,53,22,23,32,-7
1461663229717414,9,-2,-37,-48,-23,-60,-104,-33
1461663229730445,35,2,4,3,-10,-40,-75,-9
1461663229730445,-35,1,1,-13,-7,16,8,15
1461663229737494,6,9,-3,7,4,-4,17,13
1461663229737494,-12,-17,-3,16,0,13,16,-1
1461663229752458,25,-5,-32,-53,-22,-12,43,-11
1461663229752458,-11,5,12,-62,-33,35,7,-8
1461663229760463,11,-8,6,71,47,14,1,12
1461663229760463,38,-14,43,63,2,-8,-9,0
1461663229776456,12,4,-21,39,-11,-1,1,-6
1461663229776456,-24,1,-44,-57,37,0,7,1
1461663229783480,35,8,43,74,14,2,-15,18
1461663229783480,-30,-10,-17,-25,-6,-7,7,3
1461663229790485,-14,-3,-7,-48,-10,20,40,-15
1461663229790485,11,2,-3,-10,-11,1,0,8
1461663229797482,10,3,-11,-40,-13,-8,-32,6
1461663229797482,44,-9,-20,-18,-13,-34,-30,-9
1461663229812520,-10,-2,1,-7,-7,-52,1,11
1461663229812520,-44,5,-5,9,-5,-9,-9,-7
1461663229820526,-33,-1,-1,10,8,65,2,-3
1461663229820526,-10,-8,-15,-21,-8,2,20,-2
1461663229836498,64,1,-9,-15,2,19,-28,-13
1461663229836498,-2,0,3,-42,-31,-20,15,7
1461663229836498,-16,-2,29,28,21,-20,7,-1
1461663229836498,30,-10,-16,52,35,36,11,10
1461663229850519,-13,-3,-18,-87,-54,-31,-19,-11
1461663229850519,17,7,28,118,115,14,14,20
1461663229857513,-28,9,-6,-69,-43,-15,6,-8
1461663229857513,-2,-7,-14,-83,-16,-9,3,-9
1461663229880530,-2,-1,-11,20,23,28,-9,8
1461663229880530,6,-4,-3,-16,-33,7,12,-4
1461663229881544,-21,-4,-11,-13,-15,-28,-19,9
1461663229881544,33,1,4,-10,-16,-44,-57,-8
1461663229896558,-15,-1,10,-3,-2,-16,36,6
1461663229896558,10,2,0,12,-12,48,-23,-10
1461663229896558,14,0,1,7,8,-11,2,2
1461663229896558,-3,-2,-4,-11,-8,12,27,5
1461663229910610,-13,1,1,15,16,10,2,2
1461663229910610,-9,-1,9,23,10,2,-10,-12
1461663229917585,6,-7,-19,-14,-14,-16,11,-6
1461663229917585,-12,2,-22,-41,-15,19,6,-8
1461663229932595,-1,0,2,52,24,-2,-16,-1
1461663229932595,8,0,-2,-5,-12,-31,3,6
1461663229940601,-8,-5,12,31,17,9,-5,-3
1461663229940601,-1,2,23,44,19,4,4,0
1461663229957599,5,1,6,23,20,15,-2,-4
1461663229957599,-26,-3,-1,-12,-18,-11,-2,-9
1461663229963604,13,-1,-7,-11,2,5,-5,2
1461663229963604,-11,-5,-3,-11,-4,0,62,10
1461663229970608,0,-10,-4,-1,2,-3,-33,5
1461663229970608,9,-128,-3,-3,-10,-25,-32,2
1461663229994608,-18,-110,-7,-12,-8,-5,-7,-7
1461663229994608,2,60,3,-1,-3,-20,-17,-8
1461663229995609,-11,85,3,-11,3,110,38,8
1461663229995609,-6,127,-6,3,1,-30,2,1
1461663230000613,8,127,-13,-21,-14,-2,13,-7
1461663230000613,-13,110,-1,-22,-11,-12,-8,0
1461663230015625,-1,17,1,-4,8,-21,0,4
1461663230015625,6,-2,3,18,6,1,-7,0
1461663230016624,6,8,-1,17,11,-12,0,-3
1461663230016624,-10,107,14,3,1,16,-4,-7
1461663230030639,-4,34,5,-22,-17,-12,-15,-4
1461663230030639,2,-112,-2,-3,3,2,3,-3
1461663230037702,-2,-128,-10,-16,-10,-12,-7,-8
1461663230037702,-9,-125,-4,6,-3,-9,-8,2
1461663230052662,-2,-124,6,-9,-2,-13,-14,-3
1461663230052662,20,-105,2,-1,2,1,-1,-1
1461663230060715,-36,-44,-10,-8,-8,21,15,-9
1461663230060715,-23,-13,-3,1,3,21,17,1
1461663230075686,-9,-45,-6,3,-2,-19,-22,4
1461663230075686,8,52,-3,0,-6,-2,-4,-3
1461663230076687,17,27,2,1,-3,-34,-22,-7
1461663230076687,-6,-12,-4,-6,-2,17,14,4
1461663230090697,3,55,-7,1,-3,16,19,7
1461663230090697,9,80,-2,-20,-3,5,5,-3
1461663230097684,5,127,1,20,12,10,3,-3
1461663230097684,-2,99,1,10,7,-7,-9,2
1461663230112751,2,45,-16,-18,1,-11,4,4
1461663230112751,2,65,14,14,-1,-2,-2,-5
1461663230120758,-1,27,0,-19,-17,-9,0,-7
1461663230120758,-8,9,4,1,-2,-1,-10,-2
1461663230135768,-3,-4,10,22,7,4,-1,0
1461663230135768,1,0,-11,-21,-6,-11,-2,-2
1461663230143774,1,-31,1,-5,-3,12,0,-4
1461663230143774,-2,-24,1,10,0,-8,-12,1
1461663230150732,-1,-16,2,-15,-7,1,-5,3
1461663230150732,2,-30,3,5,-2,-18,2,-1
1461663230157737,1,-11,4,3,2,13,5,-3
1461663230157737,-6,4,-4,-6,4,31,9,2
1461663230188764,3,-3,0,1,-1,-5,5,12
1461663230188764,0,-5,0,5,6,4,16,12
1461663230189750,5,0,-3,-1,-4,-16,-28,-33
1461663230189750,-9,-6,-7,-10,-6,6,-12,-1
1461663230195768,0,-16,4,8,1,-6,-2,-2
1461663230195768,1,1,-1,6,2,0,-2,-2
1461663230203774,0,-3,-6,-19,-11,0,7,5
1461663230203774,-5,-13,-5,1,0,-11,-7,-1
1461663230210762,0,-3,-2,-3,-4,-6,-1,-2
1461663230210762,-4,-1,-6,-21,-10,-1,-7,-5
1461663230217826,2,14,21,38,20,9,6,4
1461663230217826,0,6,-1,-3,-3,-12,-8,-3
1461663230232790,-3,-10,10,17,3,5,3,3
1461663230232790,3,1,-16,-12,-5,-5,-1,-5
1461663230240813,-1,-10,-11,-26,-12,-1,1,-3
1461663230240813,-2,-4,5,23,7,5,1,4
1461663230254914,0,0,-1,-7,-4,-14,-4,-1
1461663230254914,-1,1,1,2,1,-15,2,-6
1461663230263910,-2,-3,-2,-5,-1,44,7,0
1461663230263910,1,5,-4,-6,-4,-9,-5,2
1461663230278978,-3,4,-5,-3,-3,-2,1,0
1461663230278978,-1,-6,3,9,2,-1,0,-2
1461663230278978,2,-6,-2,-2,-1,-16,4,4
1461663230278978,-2,-5,-5,-9,-5,0,1,-1
1461663230292987,0,-6,1,3,1,-2,-2,2
1461663230292987,2,-3,3,5,2,0,-7,-1
1461663230299945,-3,-4,-6,-10,-4,-6,-4,0
1461663230299945,-2,-2,0,-2,-3,4,-4,-1
1461663230314951,-1,-3,-4,-7,-8,-9,-1,-2
1461663230314951,1,-2,-5,0,6,10,0,-2
1461663230323952,-2,-7,-1,-6,-5,-3,-3,-4
1461663230323952,2,0,7,20,10,-7,-2,1
1461663230339014,-2,-6,-3,3,1,8,2,0
1461663230339014,-2,-2,-3,-16,-7,4,-2,-5
1461663230339014,-1,-5,-5,-8,-5,-12,-5,-1
1461663230339014,-2,-4,-7,-9,-3,-2,-1,0
1461663230352986,-6,-1,3,-1,0,3,0,0
1461663230352986,1,-3,-4,-1,1,5,1,-1
1461663230360007,2,-3,-3,-1,-5,-10,-4,-1
1461663230360007,-2,-2,1,-2,-3,-3,0,0
1461663230375016,-4,-1,3,1,3,5,-4,-1
1461663230375016,1,-1,2,4,-1,-3,-1,-3
1461663230384023,1,3,1,1,0,10,3,0
1461663230384023,-5,-9,-7,-7,-2,-4,-2,-2
1461663230399020,-1,-2,-3,0,-1,1,3,1
1461663230399020,1,3,3,5,1,-11,-5,-1
1461663230399020,1,0,-3,-5,-4,-11,-3,-2
1461663230399020,-4,-2,-2,-6,-6,5,-2,-1
1461663230413029,-3,-3,-8,-20,-11,-10,-4,-2
1461663230413029,4,11,15,29,13,6,1,0
1461663230420051,1,-3,-10,-10,1,1,2,1
1461663230420051,-4,-3,14,26,2,-2,-4,-1
1461663230435088,2,-1,3,2,3,2,2,1
1461663230435088,0,-1,3,-9,-8,0,0,0
1461663230451069,-1,0,-8,-2,0,-3,-2,-2
1461663230451069,-3,-3,-6,-10,-2,-2,0,-1
1461663230467060,0,-1,0,4,-1,-1,3,1
1461663230467060,-2,-5,-4,-6,-1,12,0,-1
1461663230468061,-4,-4,2,3,-3,-32,-11,-4
1461663230468061,-3,-3,-1,-8,-5,7,2,-3
1461663230473063,0,1,-1,6,7,31,13,3
1461663230473063,-3,-2,-2,-3,-4,-8,1,-1
1461663230480067,-4,-3,3,2,0,12,1,-3
1461663230480067,3,5,0,-1,0,-14,-4,-1
1461663230497076,-1,-2,-1,-1,-2,-12,-5,-1
1461663230497076,0,0,-4,-4,-2,0,-1,2
1461663230503080,1,-4,3,7,1,-5,-2,0
1461663230503080,-2,-4,-9,-21,-9,-1,-2,-1
1461663230519105,1,0,6,12,4,2,-1,0
1461663230519105,0,-1,-7,5,3,-1,-1,1
1461663230526110,3,5,5,17,7,3,2,2
1461663230526110,0,3,-3,-4,-2,2,-1,-2
1461663230533106,-2,-2,-11,-12,-6,-3,-3,-1
1461663230533106,-2,0,2,-2,-6,-7,-2,-2
1461663230540107,-4,-1,-1,-8,-4,-1,2,-1
1461663230540107,-2,0,-2,0,3,7,-2,-1
1461663230555113,-1,7,1,-5,-1,-11,-4,0
1461663230555113,-1,-5,0,0,1,3,-3,-2
1461663230563123,-2,2,0,-2,-4,-6,-2,-1
1461663230563123,0,0,-2,1,-4,-9,-7,-2
1461663230578161,-1,-3,-4,0,-3,-8,-1,-1
1461663230578161,-2,0,-3,-4,2,21,4,-1
1461663230579161,2,-2,-1,-2,0,4,2,0
1461663230579161,-4,-4,1,4,2,2,-1,-2
1461663230594172,4,4,3,3,-1,-6,-1,-1
1461663230594172,0,-1,0,1,-1,-12,-1,0
1461663230600176,-2,-5,-5,-10,-4,2,-1,0
1461663230600176,-1,2,1,0,-3,0,1,0
1461663230615172,-2,-1,1,2,2,-2,-2,0
1461663230615172,1,0,-1,-8,-4,-3,-1,-1
1461663230624164,0,1,-5,-19,-7,-4,-2,-5
1461663230624164,0,-3,1,6,-1,-1,-2,-1
1461663230638325,-11,-12,-1,20,12,6,-1,0
1461663230638325,-2,-3,-1,1,1,1,-1,1
1461663230639282,-2,-1,0,0,-2,-1,1,-2
1461663230639282,1,0,-7,-13,-5,-4,0,-1
1461663230653292,-1,-2,0,-5,-4,3,-1,-1
1461663230653292,-1,0,-1,0,0,-2,-2,-1
1461663230660341,2,-3,-5,-1,-2,-2,-2,0
1461663230660341,-2,-1,4,1,0,0,0,-1
1461663230675307,0,0,-1,-1,-2,-1,-2,-1
1461663230675307,-2,2,0,0,-3,-12,-4,-2
1461663230683356,-2,-1,2,0,-1,11,0,-3
1461663230683356,-2,-1,0,9,6,6,5,-1
1461663230698411,-1,4,-1,-6,-1,1,-1,-1
1461663230698411,-2,-6,-1,2,-1,0,1,-1
1461663230699411,0,1,3,3,1,-10,-3,-1
1461663230699411,-4,-3,-4,-6,-4,0,-4,0
1461663230713419,-1,1,-3,-8,-2,2,1,3
1461663230713419,-3,0,2,0,0,0,-2,-3
1461663230720426,-2,-3,2,6,2,-2,-2,-3
1461663230720426,0,-4,-2,-1,-1,-4,-1,-1
1461663230735431,1,-1,-1,-3,-3,-2,0,-2
1461663230735431,0,0,-4,-8,-4,0,0,0
1461663230743436,-2,-5,-2,2,-1,0,-1,-1
1461663230743436,-1,3,2,1,1,-2,-2,-3
1461663230758444,-1,-2,0,-3,-2,-3,-3,-1
1461663230758444,3,2,-3,-1,3,2,0,2
1461663230759445,-3,-3,-1,2,-1,-1,0,-3
1461663230759445,-3,-1,1,0,-1,-1,0,-1
1461663230772457,-2,-1,-1,-8,-6,0,-1,0
1461663230772457,-3,1,0,2,0,-3,-2,-2
1461663230780462,-1,3,2,2,-1,-3,-1,-1
1461663230780462,-1,-1,-1,-7,-1,0,2,-2
1461663230795473,-1,2,5,16,6,0,3,1
1461663230795473,-1,-2,-2,-1,0,-5,0,-2
1461663230803475,0,-3,-2,1,0,9,0,-1
1461663230803475,-1,-3,-1,-2,-5,-6,-3,-2
1461663230818548,1,4,-3,-8,-3,-4,-1,0
1461663230818548,0,-1,0,-3,-3,-7,-5,-2
1461663230819536,-3,-2,1,0,1,7,2,-4
1461663230819536,-1,-3,0,2,0,5,1,-1
1461663230832561,0,3,0,-2,-1,-5,-2,0
1461663230832561,-1,-6,-4,-1,-2,0,0,1
1461663230840564,-2,-1,-2,-6,-4,-12,-3,-3
1461663230840564,2,-2,-4,-6,-1,-6,-1,-1
1461663230855562,-2,-3,1,-6,-2,0,-1,0
1461663230855562,-1,-1,1,11,4,-1,-1,-1
1461663230863569,3,1,-6,-13,-3,-2,-1,1
1461663230863569,0,-1,-2,4,-1,-1,0,0
1461663230878620,-3,-5,4,11,5,1,2,-1
1461663230878620,-2,0,-3,-12,-2,2,-1,-2
1461663230879563,1,0,2,7,1,-2,-2,-3
1461663230879563,-1,0,-4,0,3,0,-1,-2
1461663230892630,-3,-4,-5,-2,-3,-2,-2,-2
1461663230892630,3,-1,2,1,0,2,1,0
1461663230900589,0,2,0,1,2,-3,0,-2
1461663230900589,-3,-1,-1,-4,-4,-3,-4,-1
1461663230915617,-5,-4,-4,-2,-2,0,-1,0
1461663230915617,2,4,3,1,0,-3,-1,2
1461663230923600,-1,-3,-6,-7,-3,0,0,-1
1461663230923600,-3,-2,-1,-3,-5,-6,-5,-2
1461663230938623,0,-1,-1,4,7,9,3,0
1461663230938623,1,0,-6,-1,-2,-3,0,0
1461663230939624,-2,-1,6,12,8,-5,0,0
1461663230939624,-3,-1,-2,-5,-1,-4,-3,-1
1461663230952615,-1,0,1,-1,-3,1,-3,1
1461663230952615,-3,-4,0,2,-4,1,-2,-3
1461663230960639,3,0,-1,-9,-7,-5,-3,-1
1461663230960639,-1,-1,-4,1,0,-1,1,-1
1461663230991654,-3,-4,0,2,0,4,-1,-1
1461663230991654,0,1,-2,-2,0,2,-1,0
1461663230992643,-4,-5,-2,-2,-3,-7,-2,-3
1461663230992643,-2,1,0,-3,-1,3,0,0
1461663230998649,-2,-2,-1,-6,-3,4,1,-1
1461663230998649,2,0,0,-5,0,0,0,1
1461663230999649,-5,-7,-4,-3,-4,-2,-3,-2
1461663230999649,0,-1,0,-1,1,-3,0,-1
1461663231020663,2,1,-1,1,0,-3,-2,1
1461663231020663,1,1,-1,1,-2,-1,0,-2
1461663231021664,1,-2,-1,-2,-2,1,-2,-2
1461663231021664,-1,-5,-2,-7,-3,-1,-1,-1
1461663231035712,0,0,-3,6,4,-3,-2,-1
1461663231035712,-1,1,-4,-2,2,3,1,0
1461663231042717,1,1,-1,3,-2,-1,-1,1
1461663231042717,0,0,-2,-1,-1,1,-1,-2
1461663231057728,-4,-2,-2,-4,-4,-5,-1,-1
1461663231057728,-1,-2,1,-2,-3,-5,-3,-2
1461663231065693,4,6,-6,-18,-6,4,2,0
1461663231065693,-12,-10,0,4,2,-1,-3,-3
1461663231072699,-1,1,6,12,5,-1,1,0
1461663231072699,-2,-4,2,5,3,1,-1,-2
1461663231080710,-1,-1,-2,2,1,0,0,-1
1461663231080710,4,3,-1,-5,-5,-4,0,-1
1461663231095778,0,-1,-6,-11,-6,-3,-1,0
1461663231095778,-3,-3,-2,0,0,-2,-1,0
1461663231102723,2,0,-1,-3,-2,3,1,-2
1461663231102723,-1,1,-1,2,0,-3,0,-2
1461663231117739,-3,-1,0,-5,-1,-1,-3,0
1461663231117739,-2,0,1,-1,1,-1,-1,-2
1461663231125744,1,0,-1,2,-2,-10,-2,-1
1461663231125744,-1,1,3,4,2,7,1,-1
1461663231132749,-2,-3,-2,6,4,-1,-1,-2
1461663231132749,0,-3,-3,-10,-5,-1,0,-1
1461663231140755,-1,-2,0,3,1,1,1,-2
1461663231140755,-1,1,1,-1,1,-2,-1,0
1461663231155760,-1,0,-2,-5,-1,-3,-2,-1
1461663231155760,-1,-2,0,-2,-3,0,-2,-1
1461663231162765,-2,-2,-2,5,-1,-1,-3,0
1461663231162765,0,1,-4,-3,-4,-3,-2,-1
1461663231177777,1,1,-3,-12,-6,-2,-2,-2
1461663231177777,-2,-1,-3,-2,-3,-3,-2,-2
1461663231185782,-2,-5,3,10,6,3,0,-3
1461663231185782,1,-1,-2,3,3,2,-1,0
1461663231192787,-1,-2,-2,-1,-3,-1,-1,0
1461663231192787,0,-1,0,-2,-2,-1,-1,1
1461663231200789,0,0,-4,-8,-5,-2,-3,-2
1461663231200789,0,-1,-3,-6,-4,-1,-1,-2
1461663231215832,0,0,2,-1,-3,-2,0,-2
1461663231215832,-7,-3,-3,3,3,2,-2,-3
1461663231222834,0,-1,5,18,9,2,0,-2
1461663231222834,-2,-2,-3,0,-2,-1,-1,1
1461663231237845,0,-3,1,-2,-2,-1,-1,1
1461663231237845,0,0,0,-3,-2,-1,0,-1
1461663231245851,-1,0,-2,-9,-6,1,-2,-4
1461663231245851,-1,0,1,0,-2,-1,-1,-3
1461663231260861,0,1,-2,-1,-1,-4,-1,0
1461663231260861,0,-3,1,0,0,3,-2,-2
1461663231261834,1,-3,-2,0,-1,-3,-1,-1
1461663231261834,-3,-4,-4,2,-2,-3,-2,-3
1461663231275845,-4,2,0,0,1,3,1,-1
1461663231275845,1,-1,0,-1,1,-2,0,0
1461663231282887,0,2,1,-4,0,1,-1,-2
1461663231282887,-1,-2,0,0,-1,-2,-1,-1
1461663231297858,1,-1,-1,0,0,2,1,1
1461663231297858,2,1,0,0,-2,0,0,2
1461663231305864,-4,-3,-5,-12,-6,-2,-2,-2
1461663231305864,-3,-1,3,6,1,-3,-2,-3
1461663231320874,0,1,-3,-1,1,0,-1,0
1461663231320874,3,0,3,4,5,3,2,0
1461663231321875,-3,-4,3,9,-1,-2,0,-2
1461663231321875,0,-6,-12,-13,-2,0,-1,-1
1461663231335903,-3,0,-1,0,-2,-4,-1,-1
1461663231335903,0,1,-4,-5,-4,-3,-2,0
1461663231342903,-3,1,-5,-9,-6,-3,-2,-2
1461663231342903,0,1,3,4,0,-1,-1,0
1461663231357959,1,1,-2,-3,-3,-1,-2,1
1461663231357959,-3,-6,-5,0,-1,-1,0,-4
1461663231365966,-1,-2,-2,-1,-2,5,0,-2
1461663231365966,-3,0,1,-3,-3,-1,0,-2
1461663231380918,-1,0,1,5,2,1,-1,1
1461663231380918,1,1,1,1,0,-3,0,0
1461663231381917,-1,-1,1,0,0,-1,0,-2
1461663231381917,-1,-1,-2,-1,-2,-1,-1,1
1461663231395947,-3,-3,-1,-10,-4,-5,-2,0
1461663231395947,0,1,1,19,9,1,-2,-1
1461663231402933,1,0,-3,-5,-2,-2,-3,-1
1461663231402933,0,1,3,5,3,0,0,0
1461663231418002,-2,-2,0,0,-1,-2,-1,-2
1461663231418002,0,0,-5,-9,-7,-1,0,0
1461663231426008,-1,-2,1,3,-2,-2,-2,0
1461663231426008,3,-2,-3,-3,-2,1,-1,2
1461663231441965,-2,-3,0,-3,-3,1,-1,-1
1461663231441965,2,-1,-1,-7,-2,-3,-1,0
1461663231448979,-3,-3,-3,-4,-3,-7,-2,-4
1461663231448979,-2,-1,-2,-1,-3,-5,0,0
1461663231455028,-3,-3,-5,-14,-4,0,-1,0
1461663231455028,-1,-1,4,8,2,0,-1,0
1461663231463036,0,-1,1,5,2,0,0,-1
1461663231463036,-2,-5,1,5,2,1,-1,-1
1461663231478044,0,-1,-3,-3,0,-1,-1,0
1461663231478044,-3,-1,-2,-7,-3,-2,-1,0
1461663231486004,-1,3,0,0,0,-1,-2,-1
1461663231486004,-1,0,-1,-4,0,0,0,0
1461663231501032,-1,-2,-3,-1,-3,-1,1,-1
1461663231501032,-2,-2,-2,-4,0,-1,-1,-3
1461663231502034,3,2,1,7,3,0,-1,-2
1461663231502034,-5,-1,0,4,2,-2,-3,-1
1461663231515017,-2,-1,0,6,1,-2,-2,-1
1461663231515017,2,1,-1,-5,-3,-1,-1,0
1461663231523047,0,0,-4,-9,-3,-3,1,0
1461663231523047,0,-1,-2,-5,-5,-3,-1,0
1461663231538044,0,2,2,3,1,0,0,0
1461663231538044,-6,-8,-5,-10,-5,-3,-1,-3
1461663231546049,-2,-3,-3,-5,-2,0,-2,-1
1461663231546049,-2,0,2,1,2,1,2,-1
1461663231561102,0,-1,-1,4,0,1,-1,-1
1461663231561102,-1,-1,0,-4,-3,-1,-1,-2
1461663231562046,0,0,0,-3,-2,-1,1,-1
1461663231562046,-3,0,-1,-2,-1,-1,-3,-2
1461663231575112,-3,-2,-3,-3,-3,-2,0,0
1461663231575112,2,1,-3,-3,-2,0,0,-1
1461663231583059,2,-1,-6,-7,-6,-1,-2,-2
1461663231583059,-6,-3,7,13,2,-1,-2,-1
1461663231598073,-1,-1,-1,5,5,0,0,1
1461663231598073,0,0,3,8,2,0,-1,-1
1461663231606077,-1,-3,-3,-2,-1,-1,0,0
1461663231606077,-1,-1,-4,-9,-3,0,0,-2
1461663231621087,-1,0,0,-1,-2,-1,-3,-2
1461663231621087,1,0,0,-2,-1,0,-1,-1
1461663231622088,1,-1,-2,-6,-4,-3,-2,0
1461663231622088,-1,0,-5,-10,-5,-2,-1,-2
1461663231635115,-2,-3,9,15,7,1,-1,0
1461663231635115,0,1,1,0,0,0,-1,-1
1461663231643120,-2,-3,-2,7,2,1,0,-4
1461663231643120,0,1,-3,-4,-2,0,0,-1
1461663231658172,0,0,-4,-1,-1,-1,1,0
1461663231658172,-1,0,-2,-2,-1,0,0,-1
1461663231666178,0,-1,-2,-1,-2,-2,-1,-1
1461663231666178,-2,-2,-4,-3,-5,-2,-1,-1
1461663231681130,-1,2,-2,-3,-2,0,0,1
1461663231681130,0,-2,-6,-2,-2,-3,-2,-3
1461663231682130,-6,-6,4,8,5,3,-2,-2
1461663231682130,2,1,5,18,11,3,2,1
1461663231695197,-1,-1,1,0,-1,-2,0,0
1461663231695197,-4,-2,-8,-2,-1,-2,-1,0
1461663231703144,0,2,-3,-4,-5,-2,-2,-2
1461663231703144,-2,0,-3,-9,-7,-3,-1,-1
1461663231718214,-2,-5,1,13,7,1,0,0
1461663231718214,-1,3,3,1,-2,-1,-1,0
1461663231726310,-1,-6,0,3,-1,-2,-1,-6
1461663231726310,5,2,0,3,3,2,1,5
1461663231741320,-2,2,-3,-8,-5,-3,1,2
1461663231741320,-5,-2,5,0,-1,-3,-2,-2
1461663231742293,-1,0,-8,-5,0,-2,-1,-1
1461663231742293,-2,-2,6,2,0,-1,-2,-3
1461663231755329,0,0,-1,-10,-3,-3,-2,-1
1461663231755329,-1,-5,-1,10,2,-1,0,-2
1461663231763336,1,4,3,11,2,0,-1,-1
1461663231763336,-1,-2,-4,-6,-5,-3,-2,-2
1461663231778363,-1,-4,-6,-5,-2,-1,-1,1
1461663231778363,3,2,2,0,1,0,-2,1
1461663231786299,-2,-1,0,-7,-5,-5,-1,-4
1461663231786299,-1,0,-10,-8,-1,1,6,2
1461663231801320,-2,-4,1,2,-1,1,-13,-4
1461663231801320,-1,-3,-7,-16,-6,-2,1,-1
1461663231802321,-2,-3,3,9,3,0,-4,-2
1461663231802321,-2,-3,-3,-3,-2,-2,-3,0
1461663231823335,-1,-1,2,-2,-2,-1,4,1
1461663231823335,3,0,-1,11,4,1,-2,-1
1461663231824320,1,2,-1,-14,-6,1,5,1
1461663231824320,0,0,0,2,1,-2,-4,1
1461663231838342,-2,-4,-2,4,-2,-2,0,1
1461663231838342,-1,-7,3,6,0,-1,-2,-5
1461663231853399,0,1,1,-4,2,1,-2,-1
1461663231853399,-7,-7,-4,-11,-7,-2,-5,-5
1461663231861370,2,0,-1,-4,0,0,1,2
1461663231861370,-3,1,-5,-4,-4,-1,2,1
1461663231868410,0,-3,-2,1,-1,-3,7,0
1461663231868410,-1,4,4,9,8,5,7,-2
1461663231875416,-10,-6,-8,-8,-4,-3,-15,-1
1461663231875416,0,-1,6,-6,-4,-3,-12,-5
1461663231883374,3,1,2,-4,-6,-4,5,1
1461663231883374,3,1,-8,-1,1,-2,-2,1
1461663231898382,3,0,-3,-2,-4,-2,-2,-3
1461663231898382,-2,4,6,-4,-4,-1,4,-3
1461663231906383,4,-5,-11,-22,-15,-3,-6,-4
1461663231906383,-8,-1,6,21,8,3,-2,3
1461663231921391,-7,1,-4,-17,-11,-5,0,-3
1461663231921391,2,0,3,21,11,2,0,-3
1461663231922392,1,-6,-5,16,6,2,6,-2
1461663231922392,8,10,7,-23,-13,-4,-1,1
1461663231935417,0,4,-1,25,12,7,11,0
1461663231935417,-24,-22,-13,-14,-3,2,7,-3
1461663231943425,6,-6,1,-10,-8,-8,-16,1
1461663231943425,12,10,-1,38,14,1,-17,-2
1461663231957427,6,11,-7,-15,-6,-3,5,5
1461663231957427,4,11,9,-17,-14,-7,11,-3
1461663231966433,-14,-15,-14,20,12,4,-4,2
1461663231966433,-5,-9,-2,-22,-12,-4,-17,-13
1461663231981443,-5,9,9,2,-3,2,16,-4
1461663231981443,15,17,-1,4,6,5,3,10
1461663231988448,3,10,-5,-30,-11,-9,-18,-2
1461663231988448,-7,-10,-3,2,-5,-9,-1,-1
1461663231995453,2,6,8,12,6,-2,-10,-1
1461663231995453,-14,-21,-4,-7,3,2,0,-3
1461663232002458,12,10,10,7,-1,1,-2,-5
1461663232002458,-15,-19,1,-4,3,2,0,-7
1461663232017497,3,-15,-31,-49,-6,5,50,14
1461663232017497,11,14,20,53,14,4,-23,1
1461663232026502,-18,1,4,13,7,0,-6,-10
1461663232026502,10,2,8,-28,-14,0,4,6
1461663232040512,14,40,25,16,-2,-5,-32,0
1461663232040512,-14,-23,-17,19,25,7,44,6
1461663232048480,25,1,17,28,12,12,-15,-2
1461663232048480,-3,7,-28,-41,-9,-2,-14,-21
1461663232055498,6,11,19,-6,-8,-7,14,19
1461663232055498,-19,-33,-17,-28,-20,1,-8,-18
1461663232062547,1,-4,3,1,-9,-3,-6,1
1461663232062547,-2,-31,8,-16,0,-11,-5,6
1461663232078532,-2,5,0,80,34,-1,-25,-8
1461663232078532,-3,18,-8,-23,-9,3,1,16
1461663232086535,18,0,-4,-30,-16,-1,37,2
1461663232086535,0,-6,-10,-40,-14,2,5,-1
1461663232100545,-36,-49,17,37,8,0,-22,-17
1461663232100545,0,13,5,32,20,-1,46,4
1461663232108540,13,26,-3,-5,-4,5,-38,-7
1461663232108540,-15,13,-1,14,15,2,-5,0
1461663232115544,-13,5,-5,-10,-3,-4,25,13
1461663232115544,38,6,-3,-21,-26,-24,-76,-15
1461663232122550,-33,-50,-15,-15,0,-2,10,-13
1461663232122550,5,-18,9,19,5,15,17,7
1461663232137541,-1,-45,-13,-30,-13,7,16,9
1461663232137541,17,29,-21,-46,-24,-7,6,11
1461663232145607,-1,85,-27,-6,-12,-19,6,8
1461663232145607,-23,43,14,19,0,8,34,-11
1461663232160619,37,21,-1,74,41,35,12,6
1461663232160619,-7,68,-4,-22,-5,-13,-91,-10
1461663232176591,-7,111,-10,-82,-28,-15,-21,-12
1461663232176591,1,88,35,57,17,-9,12,6
1461663232183587,-14,33,-19,-19,-11,-8,13,-5
1461663232183587,2,20,-6,-8,13,15,39,-4
1461663232191610,9,-30,3,68,30,11,-7,20
1461663232191610,0,-112,-11,1,0,3,17,7
1461663232197639,-16,-110,3,-66,-32,-1,23,3
1461663232197639,-32,-128,-8,-22,0,30,-3,-29
1461663232213679,-24,70,-15,-37,-5,-20,-48,-11
1461663232213679,9,122,-5,29,-24,-59,-36,20
1461663232221663,17,69,8,-60,-25,-19,-63,-15
1461663232221663,11,79,11,53,21,6,24,-5
1461663232228680,-35,-36,-10,-16,17,34,94,-12
1461663232228680,6,-7,19,-23,4,8,-70,-6
1461663232243690,24,30,-31,7,-16,-39,-25,4
1461663232243690,-42,-56,-10,-8,1,2,26,3
1461663232244675,-2,-67,25,47,19,22,31,-7
1461663232244675,-7,-29,-28,-16,2,11,13,8
1461663232257693,-9,-23,-8,-11,0,1,19,8
1461663232257693,38,-64,2,-26,-25,-15,-46,17
1461663232265701,16,-55,23,0,2,-16,-20,-10
1461663232265701,-2,-45,-2,57,36,15,22,-11
1461663232280717,-20,-15,14,-12,-1,11,21,3
1461663232280717,17,-84,-20,-35,-14,-14,-1,5
1461663232288722,0,-93,-29,-51,-40,-10,51,11
1461663232288722,-52,-47,48,65,10,1,-40,-19
1461663232303733,16,32,-29,23,32,-4,-24,-7
1461663232303733,-28,88,37,21,-1,-26,-35,1
1461663232304736,29,22,11,-2,-5,-4,36,7
1461663232304736,16,25,-18,-122,-34,31,58,-8
1461663232317738,4,16,41,77,14,-10,-58,-15
1461663232317738,-39,32,-11,6,-3,-23,-5,11
1461663232325787,25,15,-1,16,-2,-1,-12,9
1461663232325787,-7,26,-47,-28,0,22,90,-11
1461663232340755,-65,0,39,-128,-45,10,-50,-12
1461663232340755,68,37,-49,108,69,-3,-23,14
1461663232348765,-44,-13,54,82,19,-3,-35,-14
1461663232348765,44,-9,1,-90,-37,0,38,29
1461663232363824,71,3,-49,55,29,13,20,-19
1461663232363824,-16,33,30,-34,-26,-8,-2,8
1461663232370780,20,-8,14,-15,4,-10,-31,-11
1461663232370780,13,0,-19,-61,-24,-2,-7,-3
1461663232377768,-18,-8,8,48,33,40,38,37
1461663232377768,33,8,44,46,-9,-37,21,4
1461663232385779,-1,-15,-17,-7,-2,21,11,-20
1461663232385779,7,2,9,23,1,-38,-110,-30
1461663232409791,28,22,6,-53,-30,-34,-45,47
1461663232409791,44,5,-13,22,5,15,55,26
1461663232409791,-98,-32,0,-8,-4,0,-12,-51
1461663232409791,11,-11,17,29,12,10,15,9
1461663232423803,-31,14,-47,-53,-22,4,34,-27
1461663232423803,-10,1,51,38,4,10,-1,-3
1461663232424803,76,0,-81,-47,5,-1,-5,30
1461663232424803,-22,17,62,50,3,-12,8,0
1461663232437809,-77,-3,-23,-2,30,4,-7,-24
1461663232437809,-20,-8,31,-80,-33,-1,-2,-19
1461663232445817,67,-13,-38,-10,-12,-2,-35,-3
1461663232445817,-24,10,-35,2,-5,-15,8,-31
1461663232460828,42,2,24,-12,-7,17,9,24
1461663232460828,14,4,-9,-3,-14,-39,-38,14
1461663232468833,-67,-9,3,-3,-11,-23,-26,6
1461663232468833,-43,-8,-39,-22,-17,-15,-20,-12
1461663232483840,16,2,14,28,-5,-6,21,-6
1461663232483840,-29,2,-18,-23,10,41,36,-10
1461663232490849,125,-30,24,5,7,7,9,17
1461663232490849,1,16,-3,3,3,-1,-17,-6
1461663232505886,-106,8,-17,-28,-15,-17,8,-29
1461663232505886,-31,7,-1,19,25,42,5,10
1461663232506859,33,-18,15,-16,-11,-10,1,6
1461663232506859,36,2,36,75,41,11,-7,-5
1461663232520898,-58,8,-6,42,13,-5,-9,-5
1461663232520898,-8,5,-20,-59,-17,3,38,16
1461663232528902,8,-20,5,36,8,4,2,-10
1461663232528902,52,10,-19,7,15,15,1,7
1461663232543912,-25,14,2,3,-13,-25,-27,4
1461663232543912,-2,0,-11,-15,-8,-62,-23,-1
1461663232544885,-6,-23,6,14,12,70,2,-14
1461663232544885,14,-2,-21,-29,-21,-14,-21,-9
1461663232557910,-20,12,4,0,-1,19,38,-2
1461663232557910,-4,5,4,0,4,28,-2,0
1461663232565901,-14,4,-3,-20,-8,-25,34,14
1461663232565901,-19,9,-5,2,1,5,1,-8
1461663232580943,-2,1,-3,-7,-6,-8,-9,4
1461663232580943,-16,-11,-33,-44,-8,-10,-1,-5
1461663232588944,49,-3,26,17,8,-6,2,6
1461663232588944,10,6,19,0,4,5,-6,-2
1461663232603955,-15,-6,20,75,36,-3,-4,3
1461663232603955,-14,-11,-12,-7,-11,4,2,-1
1461663232604933,-31,22,-11,-7,-6,-6,-19,-24
1461663232604933,61,-2,3,-3,-1,-1,16,27
1461663232617951,16,3,-15,-33,-10,-1,-4,16
1461663232617951,-47,-6,6,6,8,16,-3,-29
1461663232625940,-4,16,1,-7,-2,9,26,12
1461663232625940,-69,-41,-13,-1,-11,-26,-40,-15
1461663232640952,42,-123,9,-4,-11,-16,-26,3
1461663232640952,28,28,4,8,1,-2,-5,2
1461663232648973,-39,127,-4,0,-10,-49,-9,-12
1461663232648973,2,94,-4,3,9,46,29,17
1461663232664035,31,62,-6,-9,-2,18,17,1
1461663232664035,4,18,0,6,1,14,-10,-15
1461663232664035,-5,63,0,-5,-1,-4,7,-2
1461663232664035,-14,3,-15,-25,-4,-2,10,13
1461663232678037,19,-11,-6,-37,-13,-12,-7,-2
1461663232678037,21,-9,37,77,31,1,6,-7
1461663232684998,-23,34,-7,-3,1,-1,-7,4
1461663232684998,-12,5,4,1,1,-19,-8,6
1461663232709029,18,108,-21,3,3,5,-2,-11
1461663232709029,21,127,-4,-22,-6,-2,2,-2
1461663232710030,-14,18,-9,-5,-2,-2,-16,-1
1461663232710030,-42,-112,2,11,6,1,-1,4
1461663232724042,41,-126,11,-9,-8,-10,7,2
1461663232724042,-6,-128,-16,-16,-11,13,-8,-8
1461663232724042,-31,-127,15,3,2,-24,-21,-1
1461663232724042,-10,-121,-14,-14,-9,-7,-13,-4
1461663232738021,-11,-67,7,8,2,6,3,1
1461663232738021,22,-121,-9,-8,-2,17,15,3
1461663232745055,-2,11,2,2,2,-4,6,6
1461663232745055,7,101,8,10,9,34,23,12
1461663232769043,20,124,0,5,-4,-29,3,0
1461663232769043,2,127,-2,-2,-1,9,-7,-10
1461663232770042,-15,113,-4,-16,-6,12,0,-5
1461663232770042,5,82,1,13,8,-15,-2,6
1461663232784064,11,63,7,8,1,8,-1,-8
1461663232784064,2,30,-18,-43,-23,-17,-4,-6
1461663232784064,-15,15,15,26,7,1,-3,-3
1461663232784064,3,23,-6,-12,0,-8,-5,0
1461663232798062,7,-24,16,17,7,11,1,-4
1461663232798062,0,-11,-3,2,0,-12,-1,-4
1461663232805082,-5,-12,-5,-17,-10,-1,-3,-3
1461663232805082,1,-21,-3,-2,-2,-6,-4,1
1461663232820141,4,-37,-8,-3,-4,8,2,-3
1461663232820141,3,-27,-2,-6,-3,-4,-2,-3
1461663232829113,-7,-29,-6,-5,-4,-3,0,3
1461663232829113,7,-26,-3,-5,-9,-12,4,4
1461663232844113,4,-16,-1,-5,-3,-21,-9,-2
1461663232844113,2,3,2,8,8,50,11,1
1461663232844113,-7,-1,1,3,4,4,0,2
1461663232844113,-5,1,-4,-2,-2,-4,3,4
1461663232858254,0,6,0,0,0,-1,0,-1
1461663232858254,-1,8,2,3,2,-14,-4,-3
1461663232865225,-7,8,-4,2,2,0,-1,2
1461663232865225,-4,11,1,-4,-5,-7,-3,1
1461663232880271,2,9,1,-1,-1,6,1,-4
1461663232880271,-1,-3,1,3,3,-10,-2,-2
1461663232888218,-4,-7,0,-1,-1,7,1,2
1461663232888218,-3,8,0,5,1,-4,-3,0
1461663232903242,4,7,-1,-2,2,5,2,-3
1461663232903242,0,-3,-2,-5,-4,-9,-4,-3
1461663232904241,-1,-4,-1,3,-1,-3,-1,2
1461663232904241,-2,-8,4,3,0,1,-1,1
1461663232918280,2,-3,-2,-3,3,5,3,-3
1461663232918280,1,3,4,1,-3,-6,-3,-2
1461663232925265,-5,-4,-10,-6,-4,-4,-4,0
1461663232925265,-2,0,0,3,2,5,-3,0
1461663232940259,0,-3,-2,-2,1,4,3,-1
1461663232940259,-1,-2,-2,-1,-1,-8,-2,-4
1461663232948265,-2,-7,-6,-8,-6,1,-2,0
1461663232948265,-2,-7,-1,-3,-2,0,-1,0
1461663232963275,1,-2,0,-5,-1,1,-2,-4
1461663232963275,1,0,1,4,1,-4,-3,-2
1461663232971289,-2,2,0,1,1,2,-1,0
1461663232971289,-3,-2,-4,-1,-2,-1,0,1
1461663232978293,2,0,0,-1,-3,-3,-2,-1
1461663232978293,0,-4,-2,-2,-1,-2,-1,-3
1461663232985297,-7,-9,-2,1,0,1,-1,-2
1461663232985297,3,9,-1,-1,0,0,1,1
1461663233000297,-10,-16,-5,-3,-3,0,-1,-2
1461663233000297,3,2,-1,0,-1,-3,-1,-1
1461663233008314,-5,3,0,0,-1,-1,-1,-2
1461663233008314,-2,-3,-5,-7,-3,-2,-2,0
1461663233023313,1,-2,1,4,1,1,0,-2
1461663233023313,1,-2,3,5,2,-3,0,-2
1461663233031320,2,1,0,-4,0,-1,2,-2
1461663233031320,-2,-7,-5,-12,-7,-2,-2,0
1461663233046387,0,-4,-13,-11,-7,-3,-3,-2
1461663233046387,-3,-12,8,17,13,1,2,-1
1461663233047335,2,4,-2,-1,-3,-2,-1,1
1461663233047335,-1,0,3,8,4,-1,1,0
1461663233069404,2,4,0,-4,-3,-1,1,0
1461663233069404,0,1,-3,-7,-6,-3,-2,-2
1461663233070347,-2,-5,-8,0,0,-1,-1,-2
1461663233070347,-3,1,-1,-5,-5,-2,-1,-2
1461663233083354,2,-4,0,1,1,-2,1,1
1461663233083354,2,6,-3,-5,-5,-3,0,-2
1461663233091424,-1,-9,-1,-1,0,1,-1,-1
1461663233091424,-8,-4,-2,1,-2,0,-3,-1
1461663233098368,3,1,2,5,2,1,1,3
1461663233098368,-7,-5,-3,-5,-3,-3,-2,-2
1461663233105371,-1,2,-1,-4,-3,-2,-1,-1
1461663233105371,-4,-6,0,4,4,0,0,-2
1461663233120411,5,1,0,-1,-1,0,-1,-1
1461663233120411,0,9,-5,-9,-4,-1,0,-1
1461663233128406,-4,-11,4,8,2,0,0,-2
1461663233128406,-2,2,2,2,1,1,0,1
1461663233143418,-4,0,3,1,-1,1,-1,0
1461663233143418,4,3,-3,-5,-3,-3,-1,-2
1461663233158409,3,8,0,-5,-2,-2,-2,-1
1461663233158409,-4,-4,-3,-9,-4,-2,0,0
1461663233166473,-1,-1,-1,12,5,1,-1,-2
1461663233166473,1,-4,-3,2,-1,-1,-1,-1
1461663233166473,-4,-3,-4,-2,1,-1,-1,-2
1461663233166473,1,2,-3,-4,-3,-1,-1,-1
1461663233180463,-3,-3,-9,-15,-9,-4,0,0
1461663233180463,-3,-5,0,0,1,0,-2,-2
1461663233188430,-2,0,-6,-2,0,1,-3,-3
1461663233188430,0,-5,4,18,7,2,2,3
1461663233211485,0,4,1,-1,-2,-2,-1,-1
1461663233211485,-2,-7,-3,-3,-3,-2,-1,-1
1461663233212460,1,4,-4,-8,-5,-4,-1,-1
1461663233212460,1,4,-3,-4,-3,-2,-2,1
1461663233234463,-4,-3,-1,0,1,-1,-2,-1
1461663233234463,-1,1,-2,-1,-1,-2,-2,-2
1461663233235474,-4,-10,-4,-3,-3,-1,-2,-2
1461663233235474,-2,3,1,0,-2,-1,-2,-3
1461663233240524,3,0,4,3,1,1,0,-1
1461663233240524,-2,-3,-3,-2,1,-1,1,0
1461663233248486,-2,0,2,0,-1,-2,0,-1
1461663233248486,-1,-2,-2,-4,-1,0,0,-1
1461663233263499,-3,-2,-3,-9,-1,1,0,-1
1461663233263499,1,-2,3,4,0,1,-2,-1
1461663233271546,-1,1,5,9,2,-2,-1,-1
1461663233271546,-2,-5,-1,0,1,-1,-1,0
1461663233286499,-2,0,-1,-3,0,-2,-2,-2
1461663233286499,0,-3,-10,-19,-8,-2,0,-2
1461663233286499,-1,0,11,18,7,1,0,-1
1461663233286499,2,3,-1,-2,0,0,-2,1
1461663233300521,-1,1,2,4,4,0,0,-1
1461663233300521,1,3,3,2,1,-1,-2,0
1461663233308526,-1,-2,-1,-9,-10,1,-1,-2
1461663233308526,-2,0,-2,-7,-1,0,0,1
1461663233322583,1,0,4,8,3,0,0,0
1461663233322583,2,-2,-3,9,2,0,1,0
1461663233331533,-2,-5,-5,-4,-2,-2,-2,-2
1461663233331533,0,1,4,2,0,-1,0,0
1461663233346555,-4,-2,-3,-4,-4,-1,-1,-2
1461663233346555,-1,1,0,-2,-1,-2,-2,-3
1461663233346555,-1,0,-2,-12,-6,-3,-1,-2
1461663233346555,3,4,-1,-8,-3,0,1,1
1461663233360610,-4,-7,5,24,4,1,-1,-2
1461663233360610,-5,-7,-3,-5,-3,-1,-2,-4
1461663233368616,-2,-3,-1,3,2,0,0,0
1461663233368616,0,-2,0,-5,-4,-3,-3,0
1461663233382566,0,1,-1,-9,-3,-1,-1,0
1461663233382566,1,2,1,2,0,-1,0,-1
1461663233391577,-2,0,-3,-1,-1,0,-1,-1
1461663233391577,-2,-2,0,3,0,-1,-2,-1
1461663233405738,-1,0,-1,-6,-1,-1,-2,-1
1461663233405738,1,-1,-4,-6,-3,0,-2,0
1461663233406739,0,6,1,5,2,0,0,-1
1461663233406739,-7,-13,-4,3,0,0,1,-2
1461663233420750,3,0,-4,-4,-2,-2,0,1
1461663233420750,-2,-2,0,-2,-2,-1,0,-2
1461663233428809,1,1,-1,-3,-2,-2,-2,-1
1461663233428809,1,2,0,2,0,-1,0,-1
1461663233442759,-1,-2,-3,-3,-1,-1,-1,-1
1461663233442759,-1,-1,1,-2,-2,-2,-1,-2
1461663233451767,0,-1,-1,-3,-3,0,-2,0
1461663233451767,-4,0,-4,-13,-7,-2,-1,-1
1461663233465776,-2,-2,0,0,1,0,0,-1
1461663233465776,1,-5,-5,-1,1,-2,-1,-2
1461663233466778,-2,-2,4,9,0,0,0,-1
1461663233466778,0,-2,-2,1,0,0,-1,1
1461663233480788,1,5,-1,-8,-5,-1,-1,0
1461663233480788,0,3,-1,-4,-3,0,-2,-1
1461663233488792,-2,-4,-4,-5,-3,-2,-3,-2
1461663233488792,-1,0,-2,-2,0,-1,1,1
1461663233502802,-1,0,1,0,-2,-1,0,0
1461663233502802,0,-1,1,3,1,-2,-2,-2
1461663233518814,0,-2,-4,-7,0,0,-2,-1
1461663233518814,0,0,0,4,1,-1,-3,1
1461663233525819,-1,-6,-3,-2,-1,0,0,0
1461663233525819,-1,-2,3,7,1,-1,-1,-3
1461663233526819,-4,-2,-2,-3,-3,-1,0,0
1461663233526819,2,4,2,1,0,0,0,0
1461663233540830,-3,-4,-5,-22,-8,-3,-2,-3
1461663233540830,-1,-1,2,15,4,-1,-2,-2
1461663233548834,-4,-8,-2,2,1,0,-2,-1
1461663233548834,-2,-1,1,4,1,-1,-1,0
1461663233562903,3,2,0,2,2,0,1,-1
1461663233562903,1,3,-2,-10,-5,-1,-1,-2
1461663233570909,-2,0,-2,-5,-3,-3,-2,-2
1461663233570909,-2,-2,-1,0,-1,0,-1,0
1461663233585873,-3,-3,-1,-1,-1,0,-1,-1
1461663233585873,-3,-2,-2,-4,-4,-2,-1,-1
1461663233586862,0,-1,-5,-4,-1,0,-2,0
1461663233586862,-4,-5,3,9,2,-2,0,-1
1461663233600885,2,7,-2,-2,0,0,0,2
1461663233600885,-4,-16,-2,1,0,-1,0,-1
1461663233608879,0,-1,-1,-2,-2,-2,0,-1
1461663233608879,-1,0,-2,-4,-1,0,0,-1
1461663233622916,1,-2,0,4,1,0,0,1
1461663233622916,-1,4,1,-1,-1,-1,-2,-2
1461663233630953,1,-1,-2,-4,-2,0,-1,-1
1461663233630953,-1,0,-2,-2,-3,-2,0,-1
1461663233645964,1,2,1,1,0,-1,-2,-2
1461663233645964,1,1,-3,-3,1,1,0,0
1461663233646924,-4,-2,0,3,1,2,1,-3
1461663233646924,2,0,-1,3,1,1,-1,-1
1461663233660917,0,-2,0,3,1,-2,-2,0
1461663233660917,1,0,-2,-5,-5,-2,-3,-3
1461663233668980,-2,0,0,-3,-1,-2,-1,-2
1461663233668980,-2,0,2,-1,-1,-1,-2,-1
1461663233682933,-2,-2,-5,-9,-2,0,0,-1
1461663233682933,-2,-2,-2,-1,-5,-3,-2,-1
1461663233690944,3,0,2,13,11,2,1,0
1461663233690944,-2,-2,0,3,0,0,-1,0
1461663233705952,0,-1,0,3,-1,-2,-1,0
1461663233705952,3,2,-1,-5,-2,-1,0,0
1461663233706954,-2,-1,-4,-8,-6,-1,-1,-1
1461663233706954,-2,-1,-2,-4,-2,0,-2,-2
1461663233720957,1,-2,0,-3,-5,-1,1,0
1461663233720957,-2,-2,-3,-13,-6,-3,-2,-4
1461663233729021,1,1,0,16,3,-2,-1,0
1461663233729021,-2,-1,-1,0,3,0,1,0
1461663233742989,-3,-4,-3,4,1,-2,-1,-2
1461663233742989,-3,-3,-2,-5,-6,0,-1,-2
1461663233750978,-1,1,-2,-11,-6,-3,-3,-1
1461663233750978,-2,2,0,-2,-1,0,-1,1
1461663233765990,2,2,1,3,-1,1,-1,-1
1461663233765990,-1,1,0,-4,0,-1,-2,-3
1461663233766991,-5,-6,1,1,0,-1,-2,-3
1461663233766991,0,-4,-2,5,1,1,3,2
1461663233781004,0,0,1,0,-1,1,1,1
1461663233781004,2,0,-2,1,1,-1,1,-1
1461663233796029,0,2,-1,-3,-4,-1,0,0
1461663233796029,-1,-2,-2,-6,-3,-2,-2,-3
1461663233803034,-1,-3,-4,-4,-1,-1,-1,1
1461663233803034,2,9,5,3,-2,-2,0,0
1461663233811033,-1,-4,2,13,3,0,-1,-1
1461663233811033,-2,-4,-2,-2,1,0,0,0
1461663233826070,-1,-2,-3,1,1,-2,0,-2
1461663233826070,2,0,-2,0,-1,-2,-1,0
1461663233827031,-2,3,-3,-14,-6,-2,-2,-1
1461663233827031,-1,0,1,1,-4,-2,-3,1
1461663233850060,-3,-3,4,4,3,0,-2,-2
1461663233850060,1,-1,-3,1,1,-2,2,-1
1461663233851060,-3,-3,-1,0,-2,-2,-2,0
1461663233851060,-2,-1,-4,-3,-2,-2,-1,1
1461663233863097,0,1,-2,-6,-3,-2,-1,-1
1461663233863097,-2,-4,1,4,0,-1,-1,-3
1461663233871126,1,1,-3,-6,-2,-1,-1,-2
1461663233871126,-1,-2,-3,-10,-5,-3,-2,-2
1461663233886075,1,-1,1,15,2,-1,-2,-1
1461663233886075,0,-1,0,0,3,1,-2,-1
1461663233894109,-4,-2,-2,-2,1,0,-1,0
1461663233894109,-1,1,1,-1,1,1,0,0
1461663233900112,2,0,3,-1,0,1,2,1
1461663233900112,-3,-6,-10,-14,-5,-1,-2,-1
1461663233909110,-4,-6,8,9,-1,-1,-2,-4
1461663233909110,0,1,1,5,4,1,1,0
1461663233923099,2,3,0,-2,1,-1,-1,-2
1461663233923099,-3,-3,0,2,0,0,-1,-2
1461663233931107,-2,-1,-5,-13,-7,-3,-1,1
1461663233931107,-2,-4,-2,-4,-2,-1,-2,0
1461663233945116,-2,-5,-2,-1,1,0,-2,-3
1461663233945116,-1,1,-3,-2,-3,-2,-1,-1
1461663233962127,-1,-2,2,2,1,-1,0,-1
1461663233962127,0,3,1,8,3,-1,2,1
1461663233963128,-4,-3,-4,-5,-3,-1,-1,0
1461663233963128,0,-3,0,-1,0,1,0,-3
1461663233969132,-1,-2,-3,-3,-1,0,0,-2
1461663233969132,1,2,1,-2,-1,-1,0,1
1461663233983142,0,1,-6,-15,-7,-5,-1,-1
1461663233983142,-3,-5,5,18,5,0,-2,-1
1461663233991148,-2,-1,-1,-1,0,0,-1,0
1461663233991148,0,-1,-1,-5,-2,-1,-2,-1
1461663234005217,-2,-3,0,1,-1,-1,-2,0
1461663234005217,0,0,-3,-3,-4,-2,-1,-3
1461663234014163,-1,1,-2,-4,-2,-2,-1,-1
1461663234014163,0,1,-3,-4,-3,-1,0,0
1461663234020184,-5,-7,-5,-7,-4,-1,-1,-4
1461663234020184,1,1,3,5,1,0,0,-2
1461663234028177,-5,-4,-2,0,-1,-2,-2,-1
1461663234028177,-1,-2,-3,-4,-3,-1,-1,0
1461663234043200,2,1,0,3,2,0,-1,-2
1461663234043200,0,-1,-1,-6,-2,-3,0,-2
1461663234051193,-1,-1,-2,-1,0,-1,-1,0
1461663234051193,-2,-1,-1,-10,-4,-1,-1,-2
1461663234074278,-1,0,-6,-11,-6,-2,-2,0
1461663234074278,-1,-2,5,20,7,0,-2,0
1461663234075237,-4,-2,-2,-1,-2,-2,-1,-2
1461663234075237,-1,1,1,3,2,-1,-1,1
1461663234089218,1,1,1,-2,-2,-2,2,-1
1461663234089218,-1,-1,-5,-10,-6,-2,-1,-2
1461663234090219,1,1,-2,-3,-2,0,0,-1
1461663234090219,0,2,-2,-7,-5,-2,-1,0
1461663234103228,2,-4,2,8,5,0,-1,0
1461663234103228,-4,-5,-1,8,2,-2,-2,-2
1461663234111232,-1,1,0,1,-1,0,-1,-1
1461663234111232,-3,-4,-1,1,-2,-2,-2,0
1461663234125301,1,3,-1,2,0,-1,-1,0
1461663234125301,0,-1,-1,-7,-1,-2,-1,-1
1461663234133248,-3,0,-3,-6,-3,-2,-1,-1
1461663234133248,-1,-3,1,6,4,1,0,-2
1461663234148258,0,1,2,3,2,1,0,0
1461663234148258,-1,-2,-5,-4,-4,-1,-1,-2
1461663234156263,-1,-1,-3,-1,0,-2,0,-1
1461663234156263,-1,-2,0,-4,-4,-2,0,1
1461663234163270,0,0,4,10,2,-1,-1,-2
1461663234163270,0,-2,-6,-11,-4,-2,-1,-3
1461663234171277,1,0,2,4,0,-1,0,1
1461663234171277,-1,-3,-3,4,-2,0,-2,0
1461663234185314,1,1,0,-1,1,0,-1,0
1461663234185314,1,0,-1,-8,-2,0,-3,-1
1461663234193319,-1,-3,-5,0,0,-1,-1,-1
1461663234193319,-2,-1,-1,-1,0,0,0,0
1461663234208320,-2,-2,-5,-7,-4,-1,0,-2
1461663234208320,-3,-1,2,5,0,-1,-3,-2
1461663234209321,1,-1,3,2,-1,-2,0,0
1461663234209321,-1,-5,-8,-8,-4,-2,-1,-1
1461663234223379,-1,-4,-1,11,5,2,2,-2
1461663234223379,-1,0,-2,-6,-2,0,-1,-2
1461663234231321,-1,1,5,2,0,0,-1,-1
1461663234231321,1,2,3,-1,1,-2,-1,0
1461663234245348,-2,-3,-2,-3,-3,-1,-1,-2
1461663234245348,-2,-5,-4,-2,-4,-1,-2,-2
1461663234253352,-1,0,-4,-7,1,-1,1,0
1461663234253352,-2,-1,5,7,-3,0,-1,0
1461663234268363,0,0,-1,-4,-2,-1,-2,-1
1461663234268363,-3,0,0,-2,-3,-2,1,-4
1461663234269367,-4,-4,-5,-6,-1,0,-2,0
1461663234269367,-1,1,0,-1,0,0,1,-1
1461663234283373,0,-3,1,-2,-2,-2,-1,-2
1461663234283373,1,-1,0,-1,-2,-3,-1,-2
1461663234291389,-3,0,-3,-4,-2,0,0,1
1461663234291389,-2,-1,-1,0,1,-1,0,0
1461663234305400,0,-1,2,4,1,-3,-1,-3
1461663234305400,-1,-1,-1,-4,-4,-2,-2,-1
1461663234313404,-4,0,-1,-2,-1,-2,-2,-2
1461663234313404,0,-1,0,-1,0,1,-1,1
1461663234328386,2,1,1,-5,-3,-2,-2,-2
1461663234328386,1,-1,-4,-2,-1,0,-2,-2
1461663234330388,0,-1,-4,-2,1,0,-1,-1
1461663234330388,0,-1,1,11,3,-1,1,1
1461663234343398,-2,-2,0,-1,1,-1,0,-2
1461663234343398,0,1,0,-2,-2,-2,-2,0
1461663234351411,-1,-1,1,-2,-3,-2,0,0
1461663234351411,-2,-1,-4,-7,-2,-2,-1,-1
1461663234365433,0,-3,-5,-6,-2,-1,-1,1
1461663234365433,-3,-1,4,1,0,-2,-1,-3
1461663234373484,0,2,0,-3,1,1,-1,0
1461663234373484,-3,-2,2,3,-1,1,-1,-1
1461663234388429,0,0,4,11,3,0,0,-1
1461663234388429,-1,-2,-2,-2,2,0,0,-1
1461663234389430,-2,-1,-1,0,-3,-1,-1,-2
1461663234389430,0,0,0,-1,-1,-1,0,-2
1461663234403439,-2,0,-5,-10,-4,-1,-2,-1
1461663234403439,-1,-2,-3,1,-1,-1,0,-2
1461663234411444,-1,-2,-3,0,1,-1,-1,-2
1461663234411444,-2,0,0,-2,0,0,-2,-1
1461663234425513,3,3,0,-5,-4,-2,-1,-1
1461663234425513,2,1,1,-2,-3,-2,-1,0
1461663234433460,-3,-3,-1,2,-3,-1,-2,-1
1461663234433460,-1,1,0,3,4,1,-2,0
1461663234448471,1,0,4,5,1,0,0,1
1461663234448471,-1,-2,-2,-3,-4,0,0,0
1461663234449471,-4,-4,-3,-4,-2,-2,-1,-1
1461663234449471,0,0,-3,-8,-3,-1,-2,0
1461663234463498,-2,-5,3,4,-2,-1,0,-1
1461663234463498,2,3,1,-4,0,0,-2,0
1461663234471643,1,-3,0,-1,-4,-1,-1,0
1461663234471643,-4,-6,-5,1,0,-2,-1,-3
1461663234485688,-2,-1,-4,-4,-2,0,-1,-2
1461663234485688,2,-2,-2,1,-1,0,0,-2
1461663234493711,-2,1,0,-2,-1,-2,-1,-2
1461663234493711,0,-3,-3,-9,-5,-4,0,0
1461663234524706,-3,-3,-2,5,3,1,-2,0
1461663234524706,-2,-2,2,4,2,0,-1,-1
1461663234525706,-3,-4,-1,2,2,0,-1,-2
1461663234525706,1,1,-1,-5,-3,-2,1,-2
1461663234528708,-1,-3,-2,-1,1,-1,1,-2
1461663234528708,0,2,0,-7,-4,-2,-1,-3
1461663234530770,-1,0,3,7,1,0,-1,-3
1461663234530770,-2,0,0,0,0,0,-1,-2
1461663234545738,0,1,-2,-5,0,-3,0,-1
1461663234545738,-1,-4,-5,-3,0,0,-1,-2
1461663234553744,-1,-1,0,2,-1,-2,-2,0
1461663234553744,0,0,-1,1,0,-1,-1,0
1461663234568794,1,1,-2,-5,-4,0,0,1
1461663234568794,-2,-1,-3,-7,-6,-1,-1,-2
1461663234569739,0,-2,-4,-3,2,0,0,1
1461663234569739,-2,-2,0,0,2,0,-1,-1
1461663234582746,-3,-1,1,4,0,-1,-1,-2
1461663234582746,1,0,-1,-1,0,-1,-1,0
1461663234590789,0,1,-2,-11,-7,-2,-1,0
1461663234590789,-1,-2,-4,8,0,-1,-1,1
1461663234605800,-2,-1,0,-2,2,-2,-1,-1
1461663234605800,2,1,0,8,0,-2,-2,-2
1461663234613806,-1,-2,-6,-2,-1,-3,-1,-1
1461663234613806,-1,-1,0,-3,-3,-3,-1,-1
1461663234636795,-2,0,0,0,-1,-2,0,-1
1461663234636795,-1,-1,-6,-12,-2,-1,-1,-1
1461663234637796,-3,-4,1,3,-2,0,-1,-2
1461663234637796,-1,1,6,11,4,2,0,2
1461663234642846,1,-2,-2,-2,0,0,-1,0
1461663234642846,2,-1,1,2,-1,-2,-2,-2
1461663234651796,-2,2,0,-4,0,-1,-2,0
1461663234651796,0,1,-1,-5,-3,-2,0,0
1461663234665812,0,4,1,-3,-4,-1,-4,-1
1461663234665812,-4,-6,-5,2,3,-1,-1,0
1461663234673814,-3,-5,0,2,3,0,0,-1
1461663234673814,-2,-3,3,1,-1,1,1,0
1461663234688849,1,-1,-5,3,1,0,-1,-1
1461663234688849,-1,3,2,-1,-3,-2,-3,-1
1461663234689822,-2,-2,-4,-8,-2,-4,-3,-1
1461663234689822,-2,1,0,-1,-2,-2,-1,1
1461663234710842,4,-1,-4,-1,-3,0,0,-1
1461663234710842,-1,-4,-3,1,0,0,0,-1
1461663234718841,-3,-1,1,3,1,1,-1,0
1461663234718841,-2,0,-3,-9,-4,-2,-3,-2
1461663234725861,-1,-2,-3,-9,-6,-3,-2,-2
1461663234725861,-2,-1,6,13,2,0,-1,-2
1461663234733852,2,4,5,10,2,-2,-1,0
1461663234733852,0,-2,-2,0,1,0,-3,-1
1461663234747862,-2,-2,-1,-5,-2,-1,0,1
1461663234747862,-1,-3,-3,-5,-3,-2,0,-2
1461663234756867,-1,-1,-2,0,0,0,-1,-1
1461663234756867,1,0,-3,-2,-1,-3,-1,0
1461663234762911,-2,-3,3,5,4,0,-1,-3
1461663234762911,0,0,-4,-9,-5,-2,-1,-2
1461663234777942,-1,3,0,0,-3,-1,0,1
1461663234777942,0,-3,-2,-3,2,0,0,0
1461663234785887,-4,-6,-4,-2,-3,-2,-1,-2
1461663234785887,-2,-2,-1,-2,-2,0,-2,-3
1461663234801900,0,2,-3,1,1,0,0,-1
1461663234801900,0,-2,3,3,1,-1,1,0
1461663234816969,1,1,-1,2,-1,-1,0,-1
1461663234816969,-2,-1,-3,-3,-3,-2,-2,-3
1461663234818975,1,0,1,2,1,-1,-2,-1
1461663234818975,-3,-1,-6,-11,-3,-2,-2,-2
1461663234822926,-1,-1,3,7,-1,-1,-1,-2
1461663234822926,-2,-1,-1,0,-2,-2,-1,-1
1461663234831922,-3,1,-1,-1,-2,-1,-1,2
1461663234831922,0,1,-1,2,-1,0,-1,-2
1461663234845933,-1,2,1,-3,-2,0,-1,0
1461663234845933,-1,-2,-3,0,2,-1,-1,-3
1461663234854940,-2,-3,-1,-1,-2,-1,0,-2
1461663234854940,-2,-1,-4,-1,-2,-1,-1,0
1461663234867947,1,-2,-2,-1,1,-2,-2,1
1461663234867947,1,0,0,-1,-2,-2,-2,-1
1461663234884960,-3,0,-5,-9,-2,-2,0,-3
1461663234884960,-2,-4,0,13,3,2,1,-1
1461663234885959,-1,0,0,-8,-3,0,-1,-2
1461663234885959,1,0,0,12,5,0,-1,-1
1461663234891963,1,1,-1,-5,-1,-3,0,0
1461663234891963,-3,-2,-3,-5,-3,-2,-2,-1
1461663234922046,-1,-1,-5,-5,-4,-1,-1,-2
1461663234922046,-1,-2,-1,-5,-2,-2,1,-2
1461663234923985,-3,-3,2,3,0,1,0,-1
1461663234923985,2,2,3,2,-2,-2,-2,2
1461663234928005,0,-3,-1,0,0,-1,-2,-2
1461663234928005,0,-2,-6,-7,-4,-2,-2,-1
1461663234936996,-1,-2,-2,-3,-5,-1,-1,0
1461663234936996,-1,-1,-1,0,-1,-1,-1,-1
1461663234942999,2,0,-1,-2,1,0,0,-2
1461663234942999,-2,1,-1,-2,0,-1,-2,-2
1461663234952005,-4,-3,-2,4,1,-1,0,1
1461663234952005,-1,-3,-2,-2,-1,0,-1,-1
1461663234966015,1,0,0,3,0,0,-1,-2
1461663234966015,-2,-1,1,0,0,-1,-1,-1
1461663234980026,-3,-4,0,-5,-3,-2,-1,-2
1461663234980026,1,0,-3,-4,-2,-1,0,-1
1461663234988043,1,-2,0,-1,-1,-1,-1,0
1461663234988043,-1,-1,1,-1,-3,-1,0,-3
1461663234997050,-2,-1,-6,-10,-2,-1,-2,-2
1461663234997050,-1,0,2,9,3,-1,1,-1
1461663235003041,-2,-3,-3,-4,-2,-2,-1,-1
1461663235003041,-2,-2,-1,-7,-4,-3,-1,-1
1461663235012051,3,2,0,-1,0,0,0,0
1461663235012051,-1,0,-3,-9,-2,-1,-2,-1
1461663235025116,1,1,2,5,-1,0,-1,-1
1461663235025116,-3,-6,-1,-1,-1,-3,-1,-2
1461663235034076,-1,2,0,2,0,-1,-2,0
1461663235034076,-3,-1,1,-3,-2,0,0,-2
1461663235048104,-1,-6,-3,-2,-2,-2,0,-1
1461663235048104,1,2,-2,0,0,-1,-2,-2
1461663235071152,-1,-2,2,4,0,0,0,-1
1461663235071152,-1,-1,-1,-1,0,-2,0,0
1461663235072095,0,0,-1,1,0,1,-1,0
1461663235072095,-1,-3,-5,-2,-2,0,0,-3
1461663235086118,0,-2,-1,0,-2,-2,0,0
1461663235086118,-1,0,-3,-7,-1,-3,1,1
1461663235087104,2,-1,3,11,7,0,-1,1
1461663235087104,-2,-2,3,6,2,-2,-1,-2
1461663235102124,-2,1,1,0,1,-1,0,-1
1461663235102124,0,-1,-2,-3,-1,-2,0,-1
1461663235108128,-1,1,-5,-15,-5,-2,-1,-1
1461663235108128,-5,-4,5,7,-2,-1,-3,-3
1461663235124179,-1,0,-1,2,2,2,1,0
