timestamp,emg1,emg2,emg3,emg4,emg5,emg6,emg7,emg8
1461662909195626,-1,-1,-1,-2,-1,-1,-2,-1
1461662909195626,3,6,1,1,0,-2,-1,0
1461662909201651,-7,-6,-4,-2,-2,-1,0,-4
1461662909201651,-1,-3,-1,-2,-1,-1,0,1
1461662909208656,-4,-4,0,1,-1,0,0,0
1461662909208656,-3,-1,3,2,1,-3,-3,-4
1461662909216653,2,1,-1,0,0,-2,-1,1
1461662909216653,0,9,-2,-4,-3,0,-2,-2
1461662909225660,1,-9,-2,-1,0,-1,-1,-1
1461662909225660,2,11,-6,-3,-2,0,1,1
1461662909239658,-3,-6,-2,-1,1,-2,-1,-1
1461662909239658,-3,0,-3,-2,0,-1,0,-1
1461662909247663,4,1,3,3,-1,0,-1,-1
1461662909247663,4,2,6,2,-1,-1,-1,-1
1461662909261478,-3,4,1,0,-1,-1,-2,-1
1461662909261478,-3,-10,-2,-1,0,-1,0,-2
1461662909268970,-2,-4,-2,-5,-1,1,-1,0
1461662909268970,0,-6,-4,-3,-1,-1,0,3
1461662909284493,2,7,0,0,2,0,0,-1
1461662909284493,-1,-2,1,2,1,-2,0,-1
1461662909285494,1,12,-2,-2,-4,-1,-2,-2
1461662909285494,-6,-11,-3,-1,-2,1,0,0
1461662909300505,1,-1,-3,-2,0,0,-2,-2
1461662909300505,1,2,0,-1,-1,-1,-2,-1
1461662909306557,0,-1,2,0,1,-2,0,2
1461662909306557,-7,-7,-3,-3,-1,-2,0,-1
1461662909321565,1,4,-2,-2,-3,-1,0,1
1461662909321565,1,5,1,2,1,0,0,0
1461662909329105,-3,-12,-4,-1,-2,0,1,-1
1461662909329105,2,-1,-4,-3,-1,-2,-2,1
1461662909344645,-3,-12,-3,-2,-1,0,0,-2
1461662909344645,-5,2,-1,0,-1,-2,-1,-2
1461662909345619,0,5,-1,-2,-1,-2,-2,-1
1461662909345619,-2,-1,0,2,0,1,-2,-2
1461662909360632,1,-4,0,-1,-2,-1,-2,0
1461662909360632,2,3,3,0,-1,-1,-3,0
1461662909366657,-1,1,-3,-1,-1,-1,-1,0
1461662909366657,-1,-1,-3,-3,-1,-1,1,0
1461662909381643,-5,-1,0,-1,-2,-1,-3,-2
1461662909381643,3,-1,-1,0,1,0,-1,-1
1461662909389174,0,7,1,1,1,0,-1,-1
1461662909389174,0,-4,1,-1,-1,-2,-2,-1
1461662909404672,0,-5,2,0,-2,-2,0,1
1461662909404672,-3,-6,1,1,2,2,-2,-1
1461662909405673,-4,-9,-4,-1,-1,-1,-2,-2
1461662909405673,0,7,-2,-1,-1,-2,-2,-1
1461662909420671,1,4,-3,0,-2,-2,-1,1
1461662909420671,0,-6,-1,-2,-2,-2,-2,-2
1461662909426734,0,4,2,-1,-4,-1,1,-2
1461662909426734,0,0,0,0,-2,1,-1,-3
1461662909441743,-2,-4,-1,0,1,-2,-2,-2
1461662909441743,-2,1,-4,-3,-2,-2,-3,-2
1461662909449205,1,-7,-2,-1,0,1,-2,0
1461662909449205,-3,1,-8,-4,-3,-3,-2,-3
1461662909472208,-1,3,2,2,-1,0,0,-1
1461662909472208,-6,-20,-6,0,-2,-3,-1,-3
1461662909473209,-2,1,2,0,-2,-1,-1,0
1461662909473209,0,-2,2,-1,-2,0,-3,-1
1461662909480712,2,1,-3,-1,-1,0,-1,-1
1461662909480712,3,14,2,0,-2,1,1,1
1461662909486734,-1,-7,-2,1,1,-1,-2,-2
1461662909486734,-3,-5,-4,-3,-1,0,-2,-2
1461662909504229,-3,5,-1,-1,-1,-2,-1,-2
1461662909504229,0,4,-1,-1,-2,-3,0,0
1461662909509248,-1,-1,0,1,-2,0,0,-1
1461662909509248,-2,-8,2,0,-1,-1,-1,0
1461662909524756,-2,-2,-2,-1,-2,1,0,-2
1461662909524756,-3,-1,-1,-1,-2,0,-1,-3
1461662909525258,1,11,-1,-4,-1,1,-1,-1
1461662909525258,-8,-23,-3,0,-1,-2,0,-2
1461662909540767,-1,-3,-1,-2,1,0,-2,-1
1461662909540767,1,-6,3,1,-1,-1,0,0
1461662909546759,2,18,0,0,-1,-2,-2,1
1461662909546759,0,3,0,1,-1,-1,-2,-1
1461662909561773,-3,1,1,0,2,-1,-1,-2
1461662909561773,0,-3,-2,-4,-1,0,-2,-1
1461662909569286,-4,-10,-3,-2,0,-2,0,-3
1461662909569286,0,1,2,-1,-2,-2,-2,0
1461662909584799,0,-4,-2,-2,-2,0,0,0
1461662909584799,1,6,-1,-2,-1,-1,-1,-1
1461662909585786,-1,1,-3,-1,-1,-2,-1,0
1461662909585786,3,3,0,-2,0,-2,-1,-2
1461662909600810,1,1,3,1,-2,-2,1,-2
1461662909600810,-4,-12,-3,0,1,0,1,-1
1461662909606341,-6,-4,-6,-4,1,-3,-2,-4
1461662909606341,2,8,1,1,1,0,1,0
1461662909621813,-1,3,-2,-1,-3,-1,0,1
1461662909621813,-1,-2,1,-1,-2,-2,-2,-1
1461662909629332,3,-2,2,2,-1,-2,-2,1
1461662909629332,1,5,-1,0,-3,0,-1,-1
1461662909644868,-2,-12,0,-1,-1,0,-2,-3
1461662909644868,1,11,4,1,-2,0,-1,1
1461662909645331,-1,-7,-2,-2,-1,-1,-1,-1
1461662909645331,-4,-4,-7,-3,-3,-1,-1,-2
1461662909660840,0,-3,-1,-2,0,-1,0,1
1461662909660840,-4,-5,-2,-3,1,-2,-1,-4
1461662909666343,2,9,4,-2,-2,0,-2,-3
1461662909666343,1,1,3,-1,0,0,1,-1
1461662909681371,-3,-7,-4,-4,0,0,-1,-2
1461662909681371,0,5,-2,-2,0,-2,-1,0
1461662909689378,-1,3,1,1,-2,0,-1,-3
1461662909689378,-3,-16,-4,-1,1,-2,-1,0
1461662909704938,1,4,-4,-2,-2,-1,-1,-1
1461662909704938,-3,-4,1,-1,-2,-1,-1,-2
1461662909705402,-1,4,3,1,-2,1,0,1
1461662909705402,2,4,-1,-2,1,-1,-1,1
1461662909720884,-1,1,0,-3,-1,-1,-3,-2
1461662909720884,-5,-30,-5,-1,-1,-1,-4,-3
1461662909726415,-3,-7,-6,-3,0,-1,0,-1
1461662909726415,-1,7,3,-3,-1,-2,-2,-2
1461662909741899,0,7,0,-1,0,0,-1,0
1461662909741899,3,10,-2,-4,-1,0,-1,0
1461662909749404,-3,-15,-6,-3,-3,-1,0,0
1461662909749404,-1,1,1,-1,-1,0,1,1
1461662909764930,-3,-7,1,2,0,-1,1,-3
1461662909764930,-3,5,0,0,-1,-1,-2,-3
1461662909765416,4,9,3,-1,1,-1,3,-2
1461662909765416,3,6,-2,-3,-1,0,-2,0
1461662909780427,1,-7,0,1,0,-1,-2,2
1461662909780427,1,-1,-2,-1,-2,-1,-2,2
1461662909786469,0,3,-4,-1,-3,-5,-2,-3
1461662909786469,-3,8,1,0,1,-1,0,-2
1461662909801562,-5,-12,-5,-4,1,-2,-1,-1
1461662909801562,-4,-8,1,-1,1,0,0,-2
1461662909808568,-1,-4,-1,-2,-1,1,-2,-1
1461662909808568,-1,-4,5,2,-1,-1,0,-1
1461662909824569,0,6,0,0,-2,-2,-2,0
1461662909824569,-1,1,-5,-4,-2,-2,-2,-2
1461662909825542,3,-1,1,-2,1,0,-1,0
1461662909825542,1,4,0,1,-2,0,0,0
1461662909841570,-2,-1,-3,-2,-1,0,0,-1
1461662909841570,-1,1,-2,0,-2,-2,-1,1
1461662909846574,-2,-2,2,0,-2,0,-2,-1
1461662909846574,-1,-7,-3,-3,-3,0,-2,-2
1461662909861630,1,6,2,-1,-3,-1,-2,0
1461662909861630,0,3,-3,-2,-3,-1,-1,-1
1461662909868575,-2,3,-2,2,-1,-1,-2,0
1461662909868575,-3,-3,-3,-2,-1,-2,-3,-1
1461662909884600,-1,-1,-2,-1,0,-2,-2,-2
1461662909884600,1,4,7,4,3,0,3,2
1461662909885601,-5,-6,-5,-4,0,-1,-2,-2
1461662909885601,2,6,0,-1,-2,-2,-2,-1
1461662909900595,0,-6,-1,0,-4,0,0,1
1461662909900595,-11,-8,-5,-2,-2,0,-1,-3
1461662909906657,-1,2,-1,0,0,-2,0,0
1461662909906657,-1,-3,-3,-1,1,-1,0,-3
1461662909921647,0,1,2,0,0,0,0,-1
1461662909921647,5,8,3,0,-1,1,0,1
1461662909928720,3,1,0,-1,0,-1,0,0
1461662909928720,-3,-2,-2,-3,0,-2,-2,0
1461662909944745,-2,-9,-4,0,0,-2,-2,0
1461662909944745,-1,8,0,-1,-1,-1,-3,-2
1461662909945718,2,2,2,1,1,0,0,0
1461662909945718,-1,-15,-6,-2,0,-1,0,-1
1461662909960758,1,11,3,3,2,0,-1,2
1461662909960758,-7,-17,-1,-1,-2,-1,-3,-4
1461662909966761,1,-3,2,-1,-3,-1,0,0
1461662909966761,-7,-4,-4,-1,-2,-4,-1,-1
1461662909981743,-4,0,-3,-2,-2,1,1,-2
1461662909981743,4,6,-3,-2,0,-1,-1,-1
1461662909988777,4,-1,-1,-2,-2,-1,-2,0
1461662909988777,0,5,2,-1,-2,0,-2,-1
1461662910004774,-4,-23,-5,-3,-1,-2,0,-1
1461662910004774,-5,2,0,0,-1,-1,-1,-3
1461662910005781,-1,-3,-2,-2,1,0,-2,0
1461662910005781,-2,6,0,0,-1,-1,0,-1
1461662910020787,0,8,3,1,0,1,-1,-3
1461662910020787,3,11,4,-1,-1,-2,-1,0
1461662910026791,3,-4,-4,0,-1,-1,0,1
1461662910026791,-2,-20,-3,-2,-2,-2,-2,-1
1461662910042800,-7,-2,0,0,-2,-1,-1,-1
1461662910042800,-1,-1,-1,0,-2,-1,0,0
1461662910048809,3,18,3,-3,-1,-1,-2,-1
1461662910048809,1,-7,-3,1,1,1,0,0
1461662910064802,-4,-12,-3,-3,-2,-1,0,0
1461662910064802,2,-8,-2,-2,-1,-1,-2,1
1461662910064802,0,20,1,0,0,0,0,-1
1461662910064802,4,3,-2,-3,-2,0,-1,0
1461662910080825,-19,-32,-12,-1,-2,-1,-3,-7
1461662910080825,3,0,-1,0,-2,1,-2,0
1461662910086852,-5,-16,-3,-1,-2,-1,-2,-2
1461662910086852,0,11,5,-1,-2,-1,-2,-1
1461662910102840,3,7,-2,-1,1,0,-1,0
1461662910102840,0,2,-1,-1,0,-1,-1,-3
1461662910108861,-2,-6,-1,-1,0,-2,-1,-2
1461662910108861,1,0,1,-1,-1,0,-1,0
1461662910124845,8,4,3,0,0,0,0,1
1461662910124845,-7,3,-6,-2,-1,-1,-3,-3
1461662910124845,-6,-16,-3,0,-1,0,1,-2
1461662910124845,0,3,0,1,0,-2,-1,-2
1461662910140876,4,20,4,-2,-1,-3,0,1
1461662910140876,-8,-35,-8,-2,-2,-1,-1,-1
1461662910146876,-3,-2,-1,-2,-1,-4,-1,-2
1461662910146876,-6,-6,-4,-1,0,1,1,-2
1461662910162870,5,6,1,-1,-1,-1,-2,0
1461662910162870,3,13,3,0,-1,-2,-1,-1
1461662910168890,3,16,3,1,0,0,-5,1
1461662910168890,-2,-14,1,-1,-1,-3,-2,-2
1461662910183886,5,10,0,-2,-2,0,-1,-1
1461662910183886,-3,-2,-6,-2,-3,-1,0,-1
1461662910191891,-8,-8,-4,-1,-1,-1,-1,-4
1461662910191891,0,-3,1,-1,-1,0,-1,0
1461662910200900,3,20,2,0,0,0,0,2
1461662910200900,0,-25,-5,-1,0,-2,-1,0
1461662910205918,-6,-6,0,2,0,0,-3,-4
1461662910205918,0,1,-2,0,3,1,0,0
1461662910222913,-1,-4,-3,-2,0,-2,0,1
1461662910222913,0,10,4,2,1,-1,-1,-2
1461662910228917,1,-10,-1,-1,-2,-3,0,2
1461662910228917,2,18,2,-1,-3,-1,0,0
1461662910243926,0,3,-1,-1,-2,-1,0,1
1461662910243926,-1,9,-1,-2,-3,-2,-1,-3
1461662910250932,-8,-53,-14,-6,-4,1,-1,-2
1461662910250932,-1,-13,-6,-2,-3,-2,-1,0
1461662910266943,-4,-6,-6,-1,-1,-3,-2,-3
1461662910266943,2,16,4,1,1,-1,1,-2
1461662910267944,1,6,1,0,0,-1,1,1
1461662910267944,0,9,2,1,0,0,-1,0
1461662910282955,1,14,2,-1,-4,2,-2,-1
1461662910282955,-9,-41,-10,-4,-2,-1,-2,-1
1461662910296964,5,6,-3,-3,-2,-1,0,2
1461662910296964,1,8,-1,-1,0,-2,0,-1
1461662910304970,-3,4,-4,-3,-1,0,0,-2
1461662910304970,-1,-4,-3,-2,0,0,0,-1
1461662910310975,-1,4,1,0,1,1,1,-2
1461662910310975,0,-1,0,-1,-2,-2,-2,-3
1461662910326987,3,-10,5,3,0,-2,0,0
1461662910326987,1,15,-1,-1,-2,-1,-2,1
1461662910327986,-6,-8,-4,-3,-1,-3,-2,-1
1461662910327986,-3,-2,-3,-1,-2,0,-1,-1
1461662910342997,0,-5,2,2,0,0,0,-2
1461662910342997,1,0,5,1,0,-1,-2,-1
1461662910349003,1,12,6,0,0,-2,1,0
1461662910349003,-5,6,-9,-7,-3,-4,-2,-4
1461662910364024,-5,-37,-6,-3,-1,-1,-2,-1
1461662910364024,4,20,0,0,-1,-1,-1,1
1461662910371056,-2,-11,2,0,-4,-1,-2,-1
1461662910371056,-2,-9,-2,-1,-2,0,-1,-2
1461662910387040,-3,1,-3,-2,0,-1,-1,-2
1461662910387040,2,6,1,0,0,0,0,0
1461662910388041,1,-1,-2,-1,1,0,-2,-1
1461662910388041,2,0,1,-1,-1,1,-1,0
1461662910403056,-1,2,2,0,-2,-2,-3,-1
1461662910403056,-5,-10,-4,-4,-2,-2,-3,-3
1461662910409103,-4,8,-4,-1,-1,-1,-2,-3
1461662910409103,4,-2,1,-2,-1,-2,-2,1
1461662910424113,1,20,1,2,0,-1,0,-1
1461662910424113,-4,-17,-6,-1,-2,-2,-1,-3
1461662910431072,-2,-9,-8,-3,-1,0,1,-1
1461662910431072,0,9,2,1,1,0,1,-1
1461662910447129,0,-7,0,1,0,0,-2,1
1461662910447129,0,23,3,-4,-3,-3,-3,1
1461662910448081,1,11,2,2,-1,1,-1,-2
1461662910448081,-5,2,-4,1,1,-1,1,0
1461662910463085,2,0,4,-2,1,-3,0,-1
1461662910463085,2,-2,3,5,3,2,3,1
1461662910469099,-7,-5,-10,-8,-3,-1,-1,-3
1461662910469099,-3,-9,11,9,2,1,-1,-3
1461662910484097,-3,-6,-3,1,-1,0,-3,-3
1461662910484097,5,7,1,-3,-2,-2,-2,-1
1461662910491103,3,5,-3,-1,0,-2,-3,0
1461662910491103,-1,-4,-4,-4,-3,-2,-2,-3
1461662910507113,-2,-5,-2,-3,-1,-2,-1,-2
1461662910507113,3,-2,2,0,0,1,3,3
1461662910508114,0,7,0,0,-2,-1,3,-1
1461662910508114,-4,-1,-8,-3,-2,-1,1,0
1461662910523128,3,-5,-2,-2,-2,-2,0,0
1461662910523128,-3,-1,-5,0,0,-1,-2,-1
1461662910529129,1,0,1,-1,2,1,-1,1
1461662910529129,2,-10,-1,-4,0,-1,-3,-1
1461662910544151,-1,-3,-6,0,0,-1,-3,0
1461662910544151,4,-5,-8,-9,-3,-1,-3,2
1461662910551157,-3,-2,15,12,4,0,-1,-3
1461662910551157,-2,-3,-5,5,1,0,1,1
1461662910568156,-3,-7,0,-8,-5,-3,-1,0
1461662910568156,-2,0,-8,-2,0,-2,-2,-1
1461662910574173,-5,-11,3,4,0,1,0,0
1461662910574173,1,8,9,-3,-3,-3,-1,-1
1461662910583166,-1,3,-4,0,-1,-1,-1,-1
1461662910583166,1,4,2,-1,-3,-3,-1,-1
1461662910589183,1,3,-4,-3,-3,-4,-3,-1
1461662910589183,-3,0,-12,-7,-4,-3,-4,-2
1461662910605196,1,0,-1,-2,1,1,1,1
1461662910605196,-6,-4,3,-1,-1,0,-1,-6
1461662910611226,5,9,-1,-7,-3,-1,0,1
1461662910611226,-6,-12,1,1,0,-3,-1,-4
1461662910627258,-6,-3,0,1,-1,0,-1,-2
1461662910627258,5,-1,-5,-12,-4,0,1,0
1461662910628216,-4,-4,-8,1,-1,1,-1,1
1461662910628216,-4,-1,8,5,1,0,-1,3
1461662910643215,6,0,-30,-17,-6,-2,0,-2
1461662910643215,-8,18,32,-3,-4,-6,-3,-4
1461662910649277,1,1,-17,11,0,-2,0,-4
1461662910649277,3,1,9,1,1,7,1,1
1461662910664224,-7,-9,2,11,6,20,0,-8
1461662910664224,7,-8,-4,0,3,-6,-2,1
1461662910671288,-9,-6,-1,-16,-16,-23,-9,-6
1461662910671288,3,5,-8,-2,-7,-16,1,0
1461662910687241,0,2,4,-5,-1,-1,2,2
1461662910687241,-1,-3,-4,0,-1,9,2,3
1461662910688242,2,1,4,-7,2,13,-2,-1
1461662910688242,0,-8,-23,-13,-4,5,-4,-12
1461662910703254,-7,-3,2,-9,-8,-16,-9,-5
1461662910703254,1,0,-4,13,7,6,3,2
1461662910709259,2,10,27,-3,-2,-3,1,12
1461662910709259,0,2,7,-8,1,2,0,-5
1461662910724267,0,-7,-27,2,2,5,0,-1
1461662910724267,-26,-17,5,19,7,31,8,-8
1461662910731272,8,4,26,27,16,9,11,4
1461662910731272,1,3,13,-6,-5,-52,-16,2
1461662910748321,-2,4,2,4,-6,-18,-7,4
1461662910748321,-9,3,16,4,0,-9,-4,-11
1461662910749320,11,-5,-9,0,7,24,6,8
1461662910749320,6,-3,-12,0,0,22,-5,-21
1461662910763343,-13,-9,-10,-14,-4,9,9,-2
1461662910763343,-1,-1,2,-14,-12,-31,-4,9
1461662910769346,-4,-14,-24,-22,-10,10,-6,-10
1461662910769346,-3,14,5,8,13,19,3,5
1461662910783346,7,-6,9,9,3,8,-4,8
1461662910783346,-9,-5,-27,-4,-8,-13,0,-6
1461662910791362,2,2,-22,-10,-18,-46,-8,0
1461662910791362,-4,-14,-75,-22,-14,-35,-8,11
1461662910807361,1,32,94,13,2,21,-5,-15
1461662910807361,14,2,15,50,35,31,23,22
1461662910807361,15,-14,-47,-25,-4,-17,3,5
1461662910807361,-11,4,51,22,-8,6,-7,-12
1461662910822372,-18,-33,-7,19,7,-5,6,1
1461662910822372,-4,11,11,-4,2,16,-11,-12
1461662910828385,-4,-3,3,3,13,16,1,0
1461662910828385,3,-6,-25,-27,-6,37,20,24
1461662910843416,2,14,-1,-15,-24,-64,-18,-13
1461662910843416,13,1,9,-13,-14,-11,-16,-24
1461662910851422,-11,-1,-9,-13,6,8,-5,-2
1461662910851422,-14,14,17,29,9,-1,-6,14
1461662910867474,20,-13,-12,1,-9,-9,2,14
1461662910867474,17,-7,-24,-18,-6,10,5,10
1461662910867474,-6,-7,-27,-15,-12,-39,-14,-12
1461662910867474,-7,33,50,9,2,4,20,10
1461662910882485,17,11,7,31,15,12,3,1
1461662910882485,2,-8,-41,-17,12,30,6,9
1461662910888488,4,30,46,33,12,24,21,11
1461662910888488,-20,-21,-29,-22,-21,-41,-15,-21
1461662910903489,15,4,-43,-27,-8,-6,-5,1
1461662910903489,-23,-2,32,11,-5,2,2,0
1461662910911522,28,23,-8,-35,9,27,17,22
1461662910911522,-13,-24,40,60,15,12,-3,-21
1461662910927496,-7,-3,-2,4,-7,-26,2,-1
1461662910927496,-15,-6,-9,-11,-10,-26,-18,-28
1461662910927496,-23,0,17,12,6,35,-3,6
1461662910927496,13,-2,-36,-18,6,-9,-2,13
1461662910942545,-1,8,-1,-16,-5,2,9,9
1461662910942545,5,3,-4,14,-7,0,1,2
1461662910948510,-1,-11,2,1,-8,-26,-11,-4
1461662910948510,2,-3,-43,-39,-2,-14,-4,-8
1461662910963521,19,24,30,43,18,23,6,18
1461662910963521,2,-13,-11,-41,-4,8,3,24
1461662910971527,10,-3,42,48,13,27,16,-4
1461662910971527,-45,-28,-18,-8,-2,4,-9,-31
1461662910987599,-5,-21,7,-14,-5,-1,-14,-5
1461662910987599,54,28,-43,-6,14,36,17,8
1461662910987599,-51,-45,4,-14,-28,-52,-21,-20
1461662910987599,31,6,13,8,-13,-34,14,61
1461662911002548,-18,3,-12,-12,-7,-10,3,-17
1461662911002548,-9,13,22,7,-3,-4,-15,-5
1461662911008611,17,0,-12,-6,9,16,-12,-20
1461662911008611,36,10,-23,-16,5,40,3,-15
1461662911025569,-4,-5,7,13,11,16,16,9
1461662911025569,-4,-3,-11,-26,-17,-3,-5,5
1461662911031638,-8,-23,-42,0,-7,-62,-10,-13
1461662911031638,-42,22,29,10,-3,-9,-16,-4
1461662911047582,7,-11,-1,7,3,12,1,9
1461662911047582,-6,18,58,7,3,-15,11,-6
1461662911047582,-1,-28,-90,-4,-7,11,-1,15
1461662911047582,7,7,8,22,13,12,-5,-26
1461662911062595,-51,-7,54,-16,21,93,6,-18
1461662911062595,27,19,38,58,17,40,20,35
1461662911068611,11,-27,-23,-22,-30,-85,-17,8
1461662911068611,41,-29,-52,-9,-3,-28,-21,-40
1461662911083666,-24,-1,-7,-12,-11,-3,-2,4
1461662911083666,6,-8,3,2,4,-37,-9,-17
1461662911091671,0,44,43,-1,-5,32,-21,-66
1461662911091671,11,-3,0,-13,8,38,28,11
1461662911106651,1,8,-24,-14,-21,-50,-5,15
1461662911106651,-15,-23,-26,-10,-20,-37,-8,10
1461662911113655,6,13,34,2,7,42,4,15
1461662911113655,19,22,71,25,9,15,5,16
1461662911122640,10,-17,-52,-12,4,2,-9,-3
1461662911122640,-15,0,-3,-8,-1,-7,3,22
1461662911128667,25,4,-35,-25,17,57,11,-7
1461662911128667,-44,14,36,46,1,-52,-8,-1
1461662911145656,42,10,-5,-23,-15,-26,1,5
1461662911145656,-33,-62,-24,-2,-23,-36,-14,-36
1461662911151660,13,44,74,33,18,27,15,30
1461662911151660,-10,-11,-29,-22,16,35,3,-7
1461662911166673,5,26,-23,-20,9,-9,-16,-19
1461662911166673,-15,-33,1,27,-15,-32,-3,18
1461662911173670,-1,5,-9,-22,-21,-11,-4,-34
1461662911173670,6,-26,-12,-19,-7,32,19,40
1461662911189709,3,26,28,40,-1,-47,-3,16
1461662911189709,8,4,-49,-33,8,59,-33,-12
1461662911190688,-13,31,4,-30,-11,22,22,-8
1461662911190688,-4,-10,40,54,1,-74,-8,-6
1461662911205709,-12,-53,-28,15,3,-8,6,12
1461662911205709,16,56,49,-26,31,80,22,18
1461662911211712,-21,-33,-15,71,10,-42,-16,-10
1461662911211712,-8,14,-12,-46,-32,-22,-11,19
1461662911226706,13,14,10,-11,-3,10,4,-35
1461662911226706,-20,-18,-21,-1,-11,-5,-3,-13
1461662911233731,-15,-2,-41,-4,33,68,3,8
1461662911233731,17,35,44,4,13,3,-5,-50
1461662911249782,17,-33,-82,-31,-23,-42,13,42
1461662911249782,-17,13,89,-12,-25,-25,-4,-28
1461662911250753,8,-45,-74,24,4,-2,6,27
1461662911250753,13,28,79,48,25,59,43,37
1461662911265734,17,37,23,-8,-40,-35,-28,-11
1461662911265734,-40,-62,-81,-55,-18,-67,-15,-62
1461662911271757,-4,0,-1,-53,-3,11,-16,61
1461662911271757,12,-21,38,55,14,-40,9,54
1461662911286763,4,-31,-7,16,5,16,6,-65
1461662911286763,-34,-11,-37,13,-2,-25,-23,-90
1461662911301818,-15,37,90,-3,-3,12,1,-13
1461662911301818,32,-5,-65,-6,28,64,6,57
1461662911309827,-30,-8,-27,-55,-38,-33,-2,-22
1461662911309827,59,87,80,75,20,-19,21,57
1461662911310777,-38,-73,-27,9,11,31,17,-40
1461662911310777,-30,-19,-23,-49,-26,-20,-41,-61
1461662911323776,-14,13,30,24,14,0,5,47
1461662911323776,11,-13,-50,-3,16,42,-19,-79
1461662911331780,7,28,-14,-18,3,-22,-11,33
1461662911331780,23,-9,29,4,-36,-22,34,28
1461662911346816,-2,-18,-62,-49,-8,-8,-12,20
1461662911346816,11,24,66,47,22,18,3,30
1461662911353868,10,-12,-1,25,-16,-40,-17,-41
1461662911353868,-44,-34,-54,-10,-8,8,-24,-65
1461662911369833,-21,74,7,-56,-2,11,-2,-45
1461662911369833,-1,-78,67,78,17,16,36,98
1461662911370833,10,46,21,18,0,-21,-6,-39
1461662911370833,-28,-44,-39,-38,-18,-28,-27,-9
1461662911385827,18,-3,16,29,17,53,4,-5
1461662911385827,22,-16,-51,-53,5,33,39,40
1461662911391854,-23,3,22,4,-21,-41,-6,-7
1461662911391854,28,17,-29,-17,5,70,22,55
1461662911406849,6,-8,8,16,24,16,-9,-8
1461662911406849,24,24,-32,-33,-40,-125,-38,-5
1461662911413841,3,-8,8,3,-20,-38,-9,19
1461662911413841,-1,23,-17,-25,7,50,10,-8
1461662911429852,-27,-5,-2,13,27,16,-7,-15
1461662911429852,13,7,-42,-18,-37,-26,6,21
1461662911430852,14,-18,6,13,0,-21,25,66
1461662911430852,-34,31,50,14,2,-9,-22,-89
1461662911445863,14,-8,29,15,7,30,13,69
1461662911445863,-14,5,-16,-17,4,8,-9,-65
1461662911451866,-21,32,13,-11,4,11,-6,-15
1461662911451866,19,11,66,60,13,-6,12,15
1461662911466888,3,-14,24,36,7,2,2,4
1461662911466888,-22,-8,-35,-31,-11,10,-8,-11
1461662911473940,23,19,15,-12,-8,2,3,16
1461662911473940,1,-59,-43,-28,-43,-33,-7,-16
1461662911489951,-9,-2,-5,5,0,2,-1,18
1461662911489951,8,-1,1,4,51,36,0,10
1461662911489951,12,2,-3,-6,4,12,7,9
1461662911489951,-22,5,-28,-16,9,10,9,-6
1461662911505920,-17,-11,-1,6,-65,-36,-8,-25
1461662911505920,10,18,-1,-6,17,-37,-5,83
1461662911510966,-6,0,9,11,15,31,-4,-53
1461662911510966,-15,-1,-40,-25,-4,-8,-12,-27
1461662911525929,10,-7,-25,-27,9,17,10,15
1461662911525929,-9,1,-11,36,-5,10,-1,-17
1461662911533924,-1,4,38,34,4,-11,3,47
1461662911533924,8,13,26,1,-4,-9,-4,-5
1461662911549947,-17,-7,-28,16,6,3,-2,-35
1461662911549947,-10,5,51,7,-6,-3,-2,-2
1461662911549947,7,-12,-9,-12,-6,-2,1,-2
1461662911549947,2,-1,-5,-15,-6,-5,1,12
1461662911564946,7,-6,13,-3,8,-5,-6,1
1461662911564946,-10,-9,-29,-19,-18,2,-6,-20
1461662911570962,-2,-7,-7,-6,-13,9,7,-5
1461662911570962,-10,-7,-9,-6,-11,-33,0,-2
1461662911585961,0,-9,1,3,30,34,5,22
1461662911585961,-12,-13,-4,-1,-8,-3,-5,-19
1461662911594005,-21,-5,-1,-13,-24,-20,-13,-33
1461662911594005,13,2,-26,-6,20,-11,-18,1
1461662911610997,-3,-1,11,14,-7,-41,-7,-18
1461662911610997,-6,8,-12,-11,3,22,10,5
1461662911611981,11,0,-11,-1,5,-12,5,5
1461662911611981,7,-5,-20,3,-1,2,-3,-6
1461662911625006,-3,22,51,10,10,11,1,-1
1461662911625006,7,-2,19,8,0,4,3,0
1461662911630995,1,5,1,-11,1,-8,-2,0
1461662911630995,8,7,-24,-5,1,4,6,20
1461662911646006,-1,-9,7,-4,-2,5,0,-12
1461662911646006,5,6,2,-11,-14,-9,-7,-5
1461662911654071,-3,-10,-4,2,1,5,-3,-3
1461662911654071,2,-7,10,-1,-3,3,0,6
1461662911670019,6,-6,-12,-4,-2,-1,8,22
1461662911670019,-17,-7,-5,-6,-5,4,-7,-47
1461662911670019,-19,-18,-13,-6,-19,-13,-2,-11
1461662911670019,-4,4,5,6,14,15,-8,0
1461662911685035,-15,0,-5,-10,6,10,3,5
1461662911685035,12,-8,-18,-6,15,1,4,12
1461662911691060,11,-6,-28,-11,-4,-11,-12,-7
1461662911691060,6,24,28,12,-5,-11,3,1
1461662911706061,3,7,21,15,-6,-10,-6,-6
1461662911706061,6,3,6,2,-8,7,5,12
1461662911714053,2,0,-3,-11,4,-1,2,-1
1461662911714053,2,-13,-23,-11,-13,-12,-1,6
1461662911729063,4,-1,-14,1,6,5,-3,-6
1461662911729063,3,3,19,14,2,1,1,6
1461662911730065,-4,-3,5,-3,2,2,-4,-4
1461662911730065,3,5,2,-6,-1,7,1,4
1461662911745073,3,0,6,3,-4,3,4,-3
1461662911745073,-1,-2,-11,-6,-18,-12,-2,15
1461662911751117,3,1,2,1,-1,11,-2,-21
1461662911751117,-10,-3,7,0,-3,4,4,2
1461662911766103,-9,-11,-22,-8,11,3,-3,-19
1461662911766103,-11,5,1,-1,2,0,-6,2
1461662911774108,1,-2,5,6,-2,-3,2,11
1461662911774108,-1,-5,-8,-3,17,20,-4,-6
1461662911789212,-1,-1,-7,-2,-5,-5,-5,-3
1461662911789212,0,-4,-8,0,-2,5,2,5
1461662911790197,8,8,9,2,8,2,2,2
1461662911790197,-3,-7,-1,-7,-6,-12,0,-5
1461662911805209,6,-6,-25,-14,-3,-7,-2,3
1461662911805209,5,17,5,26,8,2,2,-1
1461662911811272,1,15,38,15,6,-4,1,4
1461662911811272,7,11,0,5,-5,-10,1,5
1461662911828228,1,-3,9,-2,-4,1,-4,-2
1461662911828228,0,-15,-20,-19,-11,-7,-1,-5
1461662911834244,3,-10,-17,-8,-4,1,-1,4
1461662911834244,-5,-8,4,-2,0,1,-2,0
1461662911857308,1,-3,0,-2,-1,-4,-3,-6
1461662911857308,-7,-14,-16,-9,-7,1,-2,-3
1461662911858248,-2,-7,-3,0,1,1,-1,5
1461662911858248,-5,-5,-1,-5,-2,-4,-4,-6
1461662911865406,-4,1,-4,4,2,-4,-1,-1
1461662911865406,-5,4,14,4,5,-7,0,3
1461662911871409,-6,-5,-9,-5,0,3,-1,-2
1461662911871409,0,0,0,2,-1,3,2,0
1461662911886410,-10,0,6,3,-5,-1,-3,-5
1461662911886410,-6,2,5,-1,0,3,-1,-3
1461662911894417,0,2,-7,-5,5,1,0,2
1461662911894417,2,-2,-12,1,1,-3,1,0
1461662911911595,2,2,12,5,-3,1,1,0
1461662911911595,0,-1,2,-2,1,-3,-1,-4
1461662911911595,0,-3,-14,-11,-7,-3,-4,-2
1461662911911595,3,2,7,10,3,-1,-1,3
1461662911925561,6,7,5,11,5,0,1,1
1461662911925561,0,-2,5,0,-3,-4,-1,0
1461662911931550,-2,7,19,17,4,2,1,2
1461662911931550,0,0,2,-5,-3,-2,1,1
1461662911946563,0,-2,-5,-6,-9,-3,-1,-3
1461662911946563,0,-5,-12,-6,0,0,-3,-2
1461662911953624,-1,-7,-9,-5,-1,2,-1,3
1461662911953624,1,0,1,-4,-1,-4,-1,1
1461662911969591,1,-1,-3,1,-5,-10,-3,-1
1461662911969591,-5,-7,-6,-6,0,-3,-3,-5
1461662911970592,-6,-5,-3,0,14,12,3,3
1461662911970592,-8,-3,-6,-5,-9,-4,-4,-6
1461662911985589,-1,0,0,-2,-1,1,-2,-3
1461662911985589,2,2,1,2,-3,-10,-1,-1
1461662911991652,0,-3,-2,-1,1,0,1,-1
1461662911991652,3,3,0,-1,0,0,1,-2
1461662912006662,-2,-4,-2,-1,-1,-2,-2,-4
1461662912006662,2,1,-3,-4,-4,1,-3,-2
1461662912013608,1,2,-1,-3,-4,-4,-3,-1
1461662912013608,-2,-3,-1,-1,-1,-1,-1,-1
1461662912029619,-1,-2,-1,-2,-1,4,-2,0
1461662912029619,2,1,-3,0,2,3,2,0
1461662912030620,-1,-2,2,2,-4,-5,-2,-4
1461662912030620,5,2,5,4,-2,-1,1,3
1461662912045632,-1,-1,0,-3,-3,-2,-2,0
1461662912045632,0,1,3,-1,1,2,-1,1
1461662912051695,-4,-4,-10,-3,-3,0,1,-2
1461662912051695,-5,-3,-1,-3,-1,-5,-4,-2
1461662912066736,-1,-1,0,0,1,-1,-1,1
1461662912066736,-5,1,-5,-2,0,0,-2,-1
1461662912073753,-2,-4,-2,0,-2,-2,0,0
1461662912073753,-3,-5,-2,-3,-4,-1,1,-1
1461662912088810,-1,-1,-1,-4,-1,2,2,0
1461662912088810,-4,-4,-6,-3,-5,0,-2,-1
1461662912096756,2,2,-2,0,-3,-4,-1,-1
1461662912096756,0,-1,-3,0,1,1,-1,-1
1461662912105793,-2,1,0,2,2,-3,-2,-3
1461662912105793,-1,1,4,0,-3,3,0,-2
1461662912111827,-1,-1,-4,-4,-2,-4,-2,-1
1461662912111827,0,-3,-5,-1,1,1,-1,2
1461662912127779,-4,-2,1,-1,-1,-1,-1,-2
1461662912127779,-3,-5,-7,-2,0,-2,-2,-1
1461662912133784,0,1,-3,-2,0,-1,-1,-1
1461662912133784,-2,-3,-6,-10,-5,-5,-4,-3
1461662912148794,1,6,16,15,6,3,3,2
1461662912148794,-1,-1,5,5,3,2,0,-1
1461662912156798,-4,-8,-11,-8,-5,-1,-5,-3
1461662912156798,-1,1,13,7,2,0,-2,-1
1461662912171809,0,-1,-8,-6,-3,0,-1,0
1461662912171809,1,1,5,0,0,-2,-1,0
1461662912172810,-2,0,-1,-1,-1,0,-1,1
1461662912172810,1,0,1,0,-2,0,2,0
1461662912186830,-7,-7,-5,-5,-4,0,-1,-4
1461662912186830,0,-3,-3,-1,0,-1,0,-1
1461662912193825,0,0,-1,-5,-4,-2,0,-2
1461662912193825,3,2,-4,-2,-2,-1,-1,-1
1461662912208836,0,-2,-1,-1,-1,0,-1,0
1461662912208836,-2,-4,-6,-5,-2,-1,-2,-6
1461662912216840,0,1,5,3,0,0,0,-1
1461662912216840,2,4,0,4,1,-2,-2,-1
1461662912231865,1,-3,-5,-1,-2,0,-1,1
1461662912231865,-1,-3,-3,-2,-1,1,1,3
1461662912232852,1,3,6,4,1,-1,-3,-4
1461662912232852,-4,-3,-7,-6,-1,-1,-1,-1
1461662912246868,-5,-3,-15,-9,-4,-2,0,-3
1461662912246868,-1,-1,7,5,0,-2,-1,2
1461662912253878,0,-2,-8,-2,0,-1,-1,-6
1461662912253878,-2,0,4,3,1,0,0,-2
1461662912268889,0,2,5,3,1,0,0,-1
1461662912268889,0,1,1,0,-2,0,0,2
1461662912276912,-2,-4,-6,-3,-1,-1,-1,2
1461662912276912,0,-1,-2,-4,-2,0,0,-2
1461662912291919,-4,-4,-1,-5,-2,-3,-1,1
1461662912291919,0,0,-6,-8,-2,-1,0,-2
1461662912292919,0,-2,-9,2,0,-1,-2,1
1461662912292919,0,-1,7,0,0,-2,-1,-2
1461662912306953,0,-3,-5,-2,-2,-1,0,1
1461662912306953,-1,0,0,0,0,3,1,-1
1461662912313914,-2,-2,1,-2,-3,-1,1,-1
1461662912313914,1,4,1,3,-2,-3,-2,0
1461662912328926,1,0,2,1,-2,1,-3,-3
1461662912328926,-3,-3,0,2,0,-2,-2,-4
1461662912335941,-1,-1,0,-3,-2,-1,0,0
1461662912335941,-5,-5,-4,-5,-2,-1,-1,1
1461662912351997,-1,0,1,-1,-1,-3,-2,-2
1461662912351997,-1,0,-4,-2,-1,-2,-2,-1
1461662912352951,-5,-2,3,-1,-1,1,1,-1
1461662912352951,1,1,-2,-2,-1,-1,2,2
1461662912365945,2,3,-1,0,0,0,-2,-6
1461662912365945,1,-2,-1,-1,0,-1,0,-1
1461662912374011,-2,-3,1,-3,-3,0,0,0
1461662912374011,-5,-5,-1,-1,-2,-1,-2,-1
1461662912389021,0,0,-3,-4,0,-1,1,0
1461662912389021,-1,-1,1,2,1,1,-1,1
1461662912396998,0,1,5,5,2,-1,-2,1
1461662912396998,-3,-4,-6,-5,-2,0,-1,-2
1461662912413982,0,0,9,6,1,-1,-1,2
1461662912413982,-2,-1,-8,-7,-3,-4,-2,-4
1461662912413982,-1,-2,-4,-5,-1,-1,-2,0
1461662912413982,-2,0,2,3,2,2,0,-1
1461662912425997,-1,-2,-3,0,2,-1,-1,-1
1461662912425997,-1,-1,2,1,1,1,1,-1
1461662912434003,0,4,1,0,-1,-3,-2,1
1461662912434003,0,-3,-10,-5,-3,-4,-3,-4
1461662912449012,-1,-1,5,0,-3,-2,0,-1
1461662912449012,0,0,0,1,-1,0,-1,1
1461662912456012,2,1,2,0,0,0,1,-2
1461662912456012,-4,-3,-4,-3,-3,-1,0,-1
1461662912472024,-1,-2,-3,-2,-3,-2,1,2
1461662912472024,-1,-2,-3,-2,-1,-1,-3,-3
1461662912473025,0,-2,1,-1,-2,1,-2,1
1461662912473025,-4,-3,-4,-2,-1,0,-2,-1
1461662912486032,2,0,-7,0,1,-1,-3,-1
1461662912486032,-2,2,5,4,1,0,-1,1
1461662912494052,-1,-3,-3,-1,-1,-1,-1,-3
1461662912494052,2,0,0,-2,0,1,3,1
1461662912509050,-2,-2,-3,-4,-2,0,0,-3
1461662912509050,-1,-4,-9,-8,-2,0,-1,-2
1461662912516053,-5,1,4,1,-1,-2,-3,-6
1461662912516053,-1,0,6,2,1,1,-2,-2
1461662912532063,-1,-3,0,0,0,-1,-2,0
1461662912532063,0,0,-4,-1,-2,-2,0,1
1461662912533065,-1,-6,-5,-5,-3,-1,0,0
1461662912533065,0,1,1,-1,-1,-1,0,2
1461662912546085,-1,2,3,2,0,0,-3,0
1461662912546085,-5,-3,0,-4,-3,-2,-1,-2
1461662912554091,0,0,-5,1,-1,-3,1,1
1461662912554091,-1,-1,1,-1,-1,-3,-1,0
1461662912569102,-1,2,4,0,-2,0,0,0
1461662912569102,-2,-1,-2,-5,-2,-1,-1,-2
1461662912576107,0,0,4,10,3,0,0,0
1461662912576107,0,-2,-5,-2,-2,-3,-3,-1
1461662912592145,0,-1,-2,-1,-2,-2,-2,0
1461662912592145,1,-2,1,-1,-2,-1,-2,-1
1461662912593120,-1,0,-6,-4,0,-1,0,-2
1461662912593120,-2,-1,0,4,-1,0,-1,0
1461662912606172,-1,1,0,-2,1,-2,-1,-2
1461662912606172,-1,-3,0,0,-3,1,-1,0
1461662912614175,0,0,-2,-4,-3,-1,-1,0
1461662912614175,0,0,-1,-4,-1,1,-2,-3
1461662912637209,-3,-2,-3,-1,-1,0,-2,-2
1461662912637209,-3,-1,1,3,1,-2,0,-4
1461662912638210,1,1,0,-3,-2,-1,-3,0
1461662912638210,-3,-1,-2,0,0,-3,-1,-4
1461662912652263,0,-2,-5,-4,-1,-1,0,-2
1461662912652263,1,0,-1,0,2,0,0,-1
1461662912653203,4,0,3,-1,-1,-1,1,1
1461662912653203,2,-3,-3,1,-1,0,0,1
1461662912666229,-2,-3,-7,-2,1,1,1,1
1461662912666229,-1,1,4,3,-2,-1,0,-1
1461662912674235,-2,-2,-2,-4,-2,0,0,0
1461662912674235,2,-2,0,-1,-1,0,1,2
1461662912689247,1,-4,-7,-5,-3,-2,-3,-1
1461662912689247,-1,1,6,2,-1,-1,0,-1
1461662912696236,-3,0,10,7,-1,0,-1,-3
1461662912696236,-3,-2,0,-2,0,-1,-1,-2
1461662912712291,-2,-2,-3,-1,-1,-3,0,-1
1461662912712291,0,-1,-7,-5,-1,-1,-2,-1
1461662912713259,-4,-3,-3,-3,-1,0,-3,-3
1461662912713259,-1,-2,-4,-2,-2,-1,0,1
1461662912734271,-1,0,4,4,-1,1,-1,1
1461662912734271,-2,-4,-1,0,-1,0,-1,1
1461662912735260,-2,0,0,0,-1,-1,-2,2
1461662912735260,-3,-2,-1,-1,-3,-1,-4,-6
1461662912749329,-1,-3,-3,1,2,-3,-1,-4
1461662912749329,1,0,-1,0,-2,-3,-2,0
1461662912756335,-2,-2,1,0,0,-2,0,0
1461662912756335,-2,-3,-5,-6,-2,-2,0,1
1461662912772304,-1,-1,1,-2,-4,-3,-1,-3
1461662912772304,-2,-2,-6,-5,-4,-1,-2,-3
1461662912773316,-2,1,9,5,2,0,-2,-1
1461662912773316,0,-1,-3,-4,0,0,-1,-1
1461662912786303,-2,-1,0,-3,-2,-1,0,1
1461662912786303,0,1,1,0,0,-1,2,3
1461662912794331,-1,-4,-10,-7,-3,-1,1,0
1461662912794331,-2,0,-4,0,-1,0,-1,-5
1461662912809380,-2,-2,6,-2,-2,4,2,0
1461662912809380,-2,0,-2,-3,-1,-8,-4,-2
1461662912816334,2,-3,-3,2,0,-3,-5,0
1461662912816334,3,-3,-6,4,1,-1,-1,0
1461662912832351,-4,-3,4,-1,-1,-1,-1,-6
1461662912832351,-1,0,1,0,1,1,2,0
1461662912833348,-1,0,-4,-4,0,-1,2,0
1461662912833348,-1,-1,-3,-3,-2,-1,-3,-2
1461662912846357,1,2,-2,-3,0,1,0,1
1461662912846357,-2,-1,2,2,0,0,-1,0
1461662912854412,-1,-2,-6,-1,0,-1,-1,-1
1461662912854412,0,0,2,1,0,0,1,-2
1461662912869375,2,1,1,1,-2,0,0,0
1461662912869375,1,3,2,1,0,0,-3,-2
1461662912876390,-2,2,0,-2,-4,2,0,-2
1461662912876390,1,1,6,3,-3,0,0,1
1461662912892401,-1,-2,-4,-5,-4,-4,-4,-5
1461662912892401,-2,-5,-5,0,-2,2,0,-2
1461662912893380,1,-3,1,-2,0,-2,0,-5
1461662912893380,-2,0,6,0,-1,-2,-1,-1
1461662912906421,-3,-2,-6,-1,1,-2,-1,-3
1461662912906421,0,-5,-7,-6,-1,1,-2,1
1461662912914389,-2,0,-6,-4,-2,-2,-1,-1
1461662912914389,-1,-2,-2,-2,-2,1,-1,0
1461662912929397,-3,-5,4,1,-2,-5,-3,-1
1461662912929397,0,-1,-1,1,-2,1,0,1
1461662912944437,-1,-1,2,-3,0,3,2,-2
1461662912944437,1,0,0,-1,1,-5,-2,2
1461662912952442,0,-1,-7,0,-1,-3,-4,-4
1461662912952442,-4,-1,2,1,0,-2,-2,-3
1461662912953423,2,1,7,1,-1,0,2,3
1461662912953423,-1,-1,-8,-6,-4,1,2,0
1461662912966439,-2,-3,-3,-3,-1,4,-1,0
1461662912966439,1,-3,-5,-1,1,-10,0,4
1461662912974429,1,-1,7,-2,-1,-2,-1,-4
1461662912974429,-3,-1,5,1,1,-2,-3,-4
1461662912988479,-6,0,1,3,1,-3,1,-1
1461662912988479,-3,-3,-6,-5,-1,6,1,1
1461662912996449,-3,-4,-5,-1,0,3,0,-6
1461662912996449,-2,-1,5,-1,-3,-6,-3,-2
1461662913011455,0,0,2,4,0,0,-1,1
1461662913011455,-3,0,3,1,1,-2,-2,-3
1461662913019476,-2,-2,-5,-3,-1,1,1,2
1461662913019476,-1,0,1,3,4,8,3,-2
1461662913026525,0,-3,-1,-4,-4,-9,-5,-3
1461662913026525,1,6,10,12,2,-6,-1,3
1461662913033486,1,2,0,7,-1,-2,-1,4
1461662913033486,-4,-4,-21,-13,-7,-1,-2,-2
1461662913049500,2,4,19,7,1,2,3,5
1461662913049500,5,-3,-5,-6,-4,2,0,-1
1461662913056547,-7,-5,-7,-3,-2,-6,-2,-6
1461662913056547,0,-3,-1,2,0,-1,-2,0
1461662913080519,-2,-4,-12,-9,1,3,0,-1
1461662913080519,-1,4,9,0,-1,0,-1,-4
1461662913081521,1,-2,-7,-2,-1,0,-4,5
1461662913081521,-1,-4,-1,-4,-4,-9,-4,-4
1461662913086524,6,3,-9,-5,-2,-1,-1,2
1461662913086524,4,-6,12,9,4,10,0,3
1461662913093573,-4,-3,-16,-11,0,-2,3,-2
1461662913093573,-6,3,15,10,-2,-12,-3,-6
1461662913108584,0,0,2,0,-3,-8,-4,0
1461662913108584,4,5,2,-6,-2,6,3,1
1461662913116546,1,-11,-17,3,3,13,3,5
1461662913116546,-3,-2,-2,-4,-1,-9,-2,1
1461662913131555,-10,-9,-10,-1,-3,-3,-3,-22
1461662913131555,-7,-1,-5,-2,-5,-6,-1,-4
1461662913139561,0,5,14,5,3,9,1,-1
1461662913139561,3,1,-2,-5,0,7,-2,9
1461662913154614,-8,-2,-6,2,1,-6,-7,-7
1461662913154614,-8,-18,-27,-17,0,16,2,-11
1461662913155574,-3,15,32,4,-1,-14,0,6
1461662913155574,-1,5,18,4,1,-2,-9,-2
1461662913168591,-1,-17,-36,-16,-8,-5,-5,-11
1461662913168591,5,17,40,28,3,-16,-4,4
1461662913176602,-6,-7,-6,3,0,1,-1,-8
1461662913176602,2,0,-3,-4,5,39,12,1
1461662913191612,3,5,7,2,4,4,7,9
1461662913191612,4,0,12,2,-8,-31,-9,-9
1461662913199618,-3,-3,4,0,2,3,4,2
1461662913199618,-1,0,3,-2,-2,-10,-4,3
1461662913214617,7,-4,0,-15,-11,9,4,6
1461662913214617,-14,-5,-19,0,4,3,8,6
1461662913215603,-4,-2,-3,-11,-9,-26,-24,-2
1461662913215603,2,-17,-33,2,-6,-17,-2,-15
1461662913228609,-1,7,46,14,4,5,0,4
1461662913228609,-11,-5,-14,5,2,5,-8,-17
1461662913236614,3,11,16,-12,-9,8,6,0
1461662913236614,-7,-16,-29,5,5,20,18,13
1461662913251655,3,4,-10,-20,0,-8,0,7
1461662913251655,-2,-6,-10,-22,-9,-5,-13,-7
1461662913258694,-1,6,5,24,15,16,9,3
1461662913258694,4,20,36,-1,2,5,-8,2
1461662913274700,-1,13,38,28,-2,-39,-8,-6
1461662913274700,7,-8,-17,9,6,22,6,5
1461662913275642,-12,-19,-37,-33,-9,-2,-9,-17
1461662913275642,-3,17,40,27,2,2,9,-3
1461662913288710,4,-3,-14,-11,-4,14,7,14
1461662913288710,11,0,-23,-31,-20,-18,-3,12
1461662913296667,-11,-8,-14,-15,-18,-35,-27,-19
1461662913296667,-11,-20,-21,-3,15,78,23,9
1461662913311730,4,7,15,27,17,-35,-7,6
1461662913311730,16,-2,-19,-12,-15,5,-16,-16
1461662913318702,22,-4,-40,-40,-16,-59,2,22
1461662913318702,6,13,24,9,-22,-73,-23,-6
1461662913334692,-10,27,2,3,7,47,19,7
1461662913334692,13,-6,23,13,26,30,19,15
1461662913335693,11,3,11,42,42,125,56,4
1461662913335693,-5,-16,-26,-3,14,-23,-9,3
1461662913356699,-20,-10,3,2,-26,-90,-57,-25
1461662913356699,2,10,14,-7,-12,-31,-5,1
1461662913357700,12,3,-56,-57,-22,-52,-29,0
1461662913357700,-6,-16,14,24,4,30,18,-4
1461662913371712,9,-1,-30,-16,6,55,23,9
1461662913371712,-31,6,39,5,-11,-3,-2,-7
1461662913378717,24,-16,-11,22,10,52,9,4
1461662913378717,4,11,-27,-24,-1,-38,-10,-9
1461662913394742,1,-7,-12,-23,-4,16,12,10
1461662913394742,-18,-3,24,14,-15,-52,-29,-22
1461662913395744,-15,-8,12,9,-16,-48,3,5
1461662913395744,4,-1,-11,-18,-9,28,-3,7
1461662913408795,4,-15,-20,-8,7,37,3,-9
1461662913408795,-7,7,-30,-7,15,34,9,-19
1461662913416754,-2,21,71,38,25,22,-17,-23
1461662913416754,-3,-1,-33,-50,-37,-113,-39,-16
1461662913432754,-3,2,64,84,8,-5,25,13
1461662913432754,13,-7,-25,-1,1,9,14,16
1461662913438815,-4,1,-3,-12,-7,-15,-14,4
1461662913438815,5,-13,-25,-19,14,65,18,-1
1461662913454827,11,43,55,-11,7,5,-5,1
1461662913454827,-29,-29,7,46,12,-41,-5,1
1461662913455771,2,-17,-34,-21,3,94,26,3
1461662913455771,-21,-13,-53,-54,-8,2,0,-6
1461662913468791,-11,4,35,33,-8,-71,-29,15
1461662913468791,24,9,3,-5,-3,-6,-3,14
1461662913476857,-1,-22,-13,7,-1,-11,6,-15
1461662913476857,3,-2,6,-8,14,53,20,0
1461662913491821,-5,-26,-26,-6,-24,5,6,-8
1461662913491821,-7,5,-7,-21,-18,-26,-16,-25
1461662913498873,9,7,-5,-4,11,-18,-24,6
1461662913498873,0,8,35,16,5,-4,-10,1
1461662913522833,6,4,-64,-17,-21,-21,8,28
1461662913522833,9,10,9,-30,-12,17,19,24
1461662913523834,14,27,74,30,-10,-62,-15,4
1461662913523834,-28,4,3,49,34,35,-16,-32
1461662913528837,9,-2,12,9,43,72,18,1
1461662913528837,15,4,-87,-28,10,25,25,14
1461662913536826,-31,-6,49,23,-27,-47,-2,-6
1461662913536826,5,-5,26,3,-12,-11,-2,14
1461662913551853,-29,-23,-47,-24,-10,-40,-40,-32
1461662913551853,45,-12,-26,10,14,85,36,15
1461662913558859,-34,-13,-90,-29,32,18,-19,-3
1461662913558859,-5,29,94,36,-42,-108,-19,11
1461662913574866,10,8,20,-6,-20,-22,7,-10
1461662913574866,3,-12,-80,-83,-3,17,-5,-1
1461662913574866,-8,30,88,84,2,-14,-3,-5
1461662913574866,7,4,-2,7,-5,36,-2,-21
1461662913588875,-2,-17,-32,-18,20,43,9,23
1461662913588875,-13,-4,8,-11,9,18,1,-32
1461662913596881,-21,-22,-25,-19,-25,-80,-37,-11
1461662913596881,11,3,-99,-70,-13,-15,20,-10
1461662913611895,25,5,100,82,18,-8,24,54
1461662913611895,-20,21,20,14,10,37,-5,0
1461662913618897,16,17,77,47,4,4,16,-1
1461662913618897,21,-3,-84,-48,-16,-39,-13,13
1461662913634908,15,-3,14,-28,11,52,13,-39
1461662913634908,-87,-56,27,59,3,43,22,37
1461662913634908,12,6,-39,-37,-29,-84,-40,-38
1461662913634908,-9,-41,-34,2,8,67,27,-35
1461662913648907,-4,23,-17,-31,6,-21,-9,16
1461662913648907,24,20,95,44,-35,-111,-21,5
1461662913656937,15,0,-22,-16,16,101,23,6
1461662913656937,-17,-7,-1,6,18,0,-9,53
1461662913671947,-7,23,-5,-65,-50,-85,-28,-93
1461662913671947,10,-31,-45,13,20,12,14,-32
1461662913678928,2,-7,-29,-8,2,14,31,68
1461662913678928,1,2,-6,-44,14,7,-30,-73
1461662913694941,-20,-11,35,96,27,27,-12,35
1461662913694941,24,12,-26,-27,-27,-70,-27,32
1461662913695940,16,9,-13,-29,8,80,40,41
1461662913695940,-2,-22,91,73,4,-10,14,53
1461662913708951,-11,-27,0,-39,-13,-14,-8,-33
1461662913708951,9,40,-2,49,12,-26,8,-7
1461662913715965,-32,-40,-18,-28,6,11,34,53
1461662913715965,16,19,-10,-12,-20,-4,-23,-67
1461662913731003,-57,-10,-25,-17,-17,1,-44,-63
1461662913731003,34,-34,-18,30,34,54,22,82
1461662913739008,25,3,-63,-45,-25,-80,-32,-17
1461662913739008,-82,-23,44,37,-11,-58,17,3
1461662913755020,47,-15,-40,-16,-7,-3,-1,83
1461662913755020,-46,41,-25,-86,12,72,3,-89
1461662913755020,17,-27,51,82,17,53,21,24
1461662913755020,39,33,28,15,-8,-64,-24,60
1461662913769003,-37,-26,-79,-12,4,27,0,-68
1461662913769003,9,23,39,-26,-10,-5,-33,-3
1461662913777026,2,-3,-6,3,-1,-29,6,30
1461662913777026,-9,37,26,-44,-22,-9,3,43
1461662913792037,8,-24,8,55,35,88,31,29
1461662913792037,56,15,38,-4,-4,-50,-10,50
1461662913799042,-37,15,4,9,-14,-42,-29,-128
1461662913799042,-29,-6,-43,-26,7,37,-2,30
1461662913815026,38,4,-25,-22,-20,-39,17,112
1461662913815026,-1,-7,32,26,14,68,17,-80
1461662913815026,22,2,-12,-10,9,-47,-39,127
1461662913815026,62,9,55,36,-30,-48,23,1
1461662913829051,-53,0,-18,-32,-13,-11,-10,-128
1461662913829051,-53,-24,-14,11,7,44,20,18
1461662913836039,-17,6,2,-13,21,41,10,-5
1461662913836039,-30,-6,-43,-13,-7,-43,-36,-22
1461662913851112,43,-7,-13,-29,-9,-22,-1,45
1461662913851112,-11,42,83,43,-9,-45,-20,-6
1461662913859117,16,-2,-22,32,16,59,17,-54
1461662913859117,-24,-32,55,-21,-2,26,-14,-59
1461662913875098,20,21,25,62,21,11,22,27
1461662913875098,-22,-13,-89,-40,-8,-27,-18,-43
1461662913875098,21,3,9,-5,-8,6,4,66
1461662913875098,38,4,36,54,24,39,11,13
1461662913889105,0,-6,-11,-29,-2,23,22,6
1461662913889105,-17,-19,2,-14,-48,-63,-31,10
1461662913896083,22,9,-23,-24,-23,-35,18,44
1461662913896083,-77,-3,-60,-19,11,-7,-25,-95
1461662913913093,-15,12,14,2,2,-3,-19,89
1461662913913093,19,5,-11,12,47,36,-5,-11
1461662913919097,-18,8,3,-14,-24,-25,-20,-64
1461662913919097,50,11,-1,-4,-1,23,25,95
1461662913934137,20,-5,-62,-38,0,5,5,-13
1461662913934137,23,-8,-36,-29,-16,-12,7,-18
1461662913942142,-68,33,80,53,17,19,-13,-58
1461662913942142,13,13,46,23,10,17,10,-2
1461662913957183,-2,24,74,73,10,5,8,-15
1461662913957183,34,-16,-13,-19,-13,-13,11,93
1461662913958126,-2,-29,-38,-53,-11,-2,-11,-56
1461662913958126,8,-6,-15,45,10,25,22,27
1461662913971154,-3,-23,-18,-26,-21,0,-17,-75
1461662913971154,-41,-13,20,5,1,-21,-1,-27
1461662913979168,13,-6,3,6,4,-4,-17,48
1461662913979168,-14,-9,-29,-15,-20,-3,8,-5
1461662913994180,6,-4,-28,-31,-23,-39,-6,-27
1461662913994180,-16,7,7,20,12,-12,-21,-7
1461662914002187,2,-2,-18,-12,8,14,7,18
1461662914002187,32,11,-22,-14,12,13,7,37
1461662914009190,-13,15,8,3,14,31,-1,-29
1461662914009190,-8,19,8,-15,-20,-19,0,-10
1461662914016167,4,1,-9,7,5,8,7,7
1461662914016167,12,4,-4,-25,-5,-1,-10,-6
1461662914031191,-3,14,12,29,8,-7,8,8
1461662914031191,-3,-3,16,22,1,-3,-5,-16
1461662914039182,-2,-12,45,12,-5,2,4,18
1461662914039182,4,-32,-45,-22,-9,-1,5,-4
1461662914054251,-2,-5,-4,-21,-9,-9,-19,30
1461662914054251,-4,-14,-17,-7,4,5,7,-26
1461662914062259,-6,-5,-13,-11,-12,5,-7,-32
1461662914062259,0,-5,-6,4,0,-35,-2,-7
1461662914069219,-7,-13,-16,-22,-34,-71,-15,6
1461662914069219,9,-3,-1,5,-24,-41,-7,32
1461662914076237,-4,4,2,0,26,14,-2,-43
1461662914076237,4,-1,0,8,46,57,4,19
1461662914091247,-1,6,-5,-17,11,25,7,-2
1461662914091247,-10,-29,-24,2,7,4,3,10
1461662914099256,-1,-1,-55,-28,-35,-16,5,15
1461662914099256,-3,9,59,57,9,-1,-3,0
1461662914114235,5,15,17,7,11,7,6,7
1461662914114235,0,11,36,6,-9,-1,1,8
1461662914122242,-9,7,14,4,1,-5,-6,-13
1461662914122242,12,-3,-23,-9,-10,-3,1,12
1461662914137312,2,-8,23,6,-6,2,2,-11
1461662914137312,9,-3,-2,-8,-4,3,7,30
1461662914138252,0,-14,-11,-14,-1,-5,-3,-2
1461662914138252,-30,-11,-14,-14,-16,-6,-17,-53
1461662914151327,-22,-14,-11,-5,-3,13,0,-2
1461662914151327,10,5,-12,-7,-8,20,11,25
1461662914159326,6,2,12,4,20,-30,-9,-1
1461662914159326,2,4,-5,1,-25,-48,-13,2
1461662914174302,5,-2,-10,-8,7,11,-2,11
1461662914174302,-2,1,1,-2,28,32,3,-11
1461662914182308,-6,0,-4,-1,1,21,11,6
1461662914182308,2,8,-16,-5,12,13,5,0
1461662914197307,-4,3,12,23,-9,-21,-3,-6
1461662914197307,-8,-15,2,-12,-13,-11,-7,-6
1461662914198308,0,10,30,16,4,5,2,-4
1461662914198308,1,-3,-8,-6,-5,3,-1,2
1461662914211453,8,-1,-10,-9,0,2,4,10
1461662914211453,17,6,15,7,3,0,7,19
1461662914219430,-4,-14,-12,-7,-6,-3,-6,-35
1461662914219430,-6,-8,-6,-7,-4,2,-5,-13
1461662914234425,-7,-3,-6,-2,-4,20,12,1
1461662914234425,-14,-6,-7,0,4,-11,-11,-19
1461662914242475,-10,-6,-5,-4,-17,-4,-10,1
1461662914242475,14,7,7,4,3,1,3,13
1461662914257428,-3,-4,-15,-5,13,-12,-7,-12
1461662914257428,-2,4,3,1,3,12,2,-6
1461662914258428,0,-2,-2,-1,1,8,7,12
1461662914258428,1,-4,-8,-5,-10,-4,-3,0
1461662914271439,0,5,-6,-10,4,-16,-5,5
1461662914271439,3,12,0,3,2,-7,-5,-7
1461662914279445,-1,1,-10,12,8,10,3,5
1461662914279445,-6,3,0,10,8,8,4,2
1461662914294456,-7,4,12,-7,-12,-4,-4,-4
1461662914294456,-4,-2,-2,-5,-6,-12,-7,-6
1461662914301473,5,8,10,8,-1,-2,0,1
1461662914301473,-2,15,21,7,0,-3,3,3
1461662914318530,1,-3,-2,8,9,4,0,4
1461662914318530,-3,-8,-6,-6,-19,-5,-8,-9
1461662914319542,-1,-11,-6,-8,-12,-6,1,4
1461662914319542,0,-8,-6,-5,0,-19,-2,1
1461662914331640,1,-2,-6,-2,17,32,0,1
1461662914331640,-9,-8,-3,0,-1,-3,-1,-2
1461662914338645,-3,-9,-4,-4,1,9,5,3
1461662914338645,-5,-5,-4,-3,5,6,0,-1
1461662914353709,3,-2,-6,0,-6,-21,-10,-3
1461662914353709,-3,-5,-8,2,2,20,4,0
1461662914361715,-4,9,1,-6,-7,0,-3,-1
1461662914361715,2,3,-1,-5,5,12,0,-3
1461662914376681,4,4,-3,-4,-3,-9,-1,1
1461662914376681,9,16,10,5,5,-6,-2,-2
1461662914384687,-8,-28,-4,-1,-3,-9,0,1
1461662914384687,3,-6,12,2,-1,3,3,0
1461662914391692,-2,-6,-2,0,-10,-2,-1,1
1461662914391692,4,7,-4,1,4,-9,-1,0
1461662914399679,2,10,1,-8,-5,-6,-2,-1
1461662914399679,-5,-6,-12,-1,11,-4,2,0
1461662914413687,-4,-4,-4,-3,-6,6,4,-1
1461662914413687,-6,-1,-4,-4,-2,-2,-2,-4
1461662914421730,5,8,12,6,-10,-8,-1,2
1461662914421730,-1,0,-6,-5,0,7,-1,3
1461662914436715,3,3,3,-1,-5,-2,0,1
1461662914436715,-5,-7,-9,-4,9,-5,-2,-4
1461662914437704,-3,1,0,2,11,26,2,1
1461662914437704,-3,-5,3,2,-5,-19,-3,-2
1461662914451752,-2,1,-2,1,-4,14,-2,0
1461662914451752,0,-6,0,-6,-9,-21,-3,-1
1461662914466735,8,13,-3,-6,1,5,0,-2
1461662914466735,4,3,9,2,-4,9,3,1
1461662914473787,-18,-37,-3,-2,4,-10,-2,-7
1461662914473787,4,5,-6,2,2,0,0,0
1461662914481746,-2,-1,1,0,2,-8,0,-2
1461662914481746,-1,0,-7,-5,-2,-1,1,0
1461662914496774,8,9,0,-2,-1,-4,2,2
1461662914496774,1,-1,8,-1,-1,2,0,-1
1461662914498748,5,1,-18,-9,-3,-10,-2,-2
1461662914498748,0,5,8,13,5,5,0,0
1461662914511818,0,9,16,12,2,-3,-1,1
1461662914511818,0,-2,-1,1,-2,3,-2,-3
1461662914518769,-3,4,1,-3,-2,-6,1,0
1461662914518769,-3,-17,-20,-11,-13,-1,-6,-5
1461662914533774,1,0,-6,-6,3,4,-1,-3
1461662914533774,-2,-1,9,2,6,2,-1,-1
1461662914541779,0,-3,-3,-2,-11,-20,-1,-1
1461662914541779,0,10,8,-3,11,15,0,-2
1461662914556788,-9,-24,-9,2,0,3,0,-1
1461662914556788,0,-1,1,0,-1,3,-2,-2
1461662914557789,2,-2,3,-3,-3,-14,-1,-3
1461662914557789,-1,-5,-7,-5,-8,2,-1,-4
1461662914571800,3,5,0,-4,-5,-14,0,-1
1461662914571800,-1,-3,-4,1,-1,0,0,0
1461662914578804,-2,1,-1,0,-5,1,-2,-3
1461662914578804,0,9,7,3,1,0,-1,-1
1461662914593813,2,3,-9,-6,-1,3,-2,0
1461662914593813,-5,3,-2,-5,-8,0,-4,-4
1461662914601819,2,0,7,-2,0,2,0,1
1461662914601819,-11,-22,-15,-6,-5,-5,-3,-5
1461662914616829,4,6,-15,4,1,3,1,2
1461662914616829,-2,-4,3,2,3,-3,-1,1
1461662914617830,-2,0,-1,-3,-7,2,-1,0
1461662914617830,4,4,5,-1,0,0,-3,-1
1461662914632841,1,-3,0,-5,-2,-4,-1,-1
1461662914632841,-4,-5,-3,0,1,2,1,-2
1461662914638845,-2,-1,-2,1,0,1,-2,0
1461662914638845,-1,1,4,5,0,0,1,1
1461662914655896,3,1,0,0,0,-1,1,-2
1461662914655896,6,4,3,1,-7,-15,-1,1
1461662914661900,-9,-9,-5,-3,19,27,0,-1
1461662914661900,0,-5,-8,-7,-7,-8,-1,2
1461662914676912,0,5,4,3,5,1,-2,-2
1461662914676912,-1,0,6,2,-6,-2,0,-1
1461662914677891,-2,-2,-3,2,-5,-9,-2,-1
1461662914677891,1,3,1,-2,-5,-3,0,1
1461662914691945,-3,0,-5,-6,-8,1,-1,-2
1461662914691945,-2,-6,0,-5,3,-4,-3,-1
1461662914698891,2,-1,0,3,-1,-4,-1,1
1461662914698891,-1,-1,-9,-4,2,2,-4,-3
1461662914713928,-2,-3,1,5,-2,-3,-1,0
1461662914713928,5,14,9,6,0,4,0,1
1461662914721905,-2,-12,-3,-1,-2,0,0,1
1461662914721905,-2,-1,-4,-1,-1,-2,-1,-2
1461662914736943,2,4,0,-5,-2,-2,-2,1
1461662914736943,-6,-8,-12,-7,1,4,-2,-2
1461662914737917,2,5,-1,-5,-3,-2,-2,0
1461662914737917,-4,-2,-5,3,5,2,-1,0
1461662914751926,-2,-2,10,2,-5,-6,0,0
1461662914751926,2,0,-1,-1,0,1,0,0
1461662914758930,-2,-3,-2,-3,-7,-10,0,-2
1461662914758930,0,-2,-1,-4,-1,0,-1,0
1461662914773943,5,5,-3,1,6,2,0,-1
1461662914773943,-3,-3,1,1,-5,1,-2,-1
1461662914781948,-1,0,-1,0,2,-3,-1,-1
1461662914781948,-2,-2,0,-1,-2,0,0,0
1461662914796957,-2,-2,0,-5,-1,-4,-3,-1
1461662914796957,0,-2,-2,-2,-1,-1,-1,-2
1461662914797958,3,0,-2,0,-4,1,-2,-2
1461662914797958,-4,-2,-6,-2,-1,1,-1,-1
1461662914811967,-1,0,3,-3,-2,2,1,1
1461662914811967,-5,-7,-10,-1,0,-1,0,-2
1461662914818973,1,2,5,3,1,0,1,0
1461662914818973,-1,3,6,1,-2,-4,-1,-1
1461662914834042,-6,-6,-5,-5,-1,-2,-2,-4
1461662914834042,2,-3,-6,-6,-1,-1,-2,1
1461662914842047,-3,-5,-5,1,0,-1,-1,1
1461662914842047,1,3,8,2,-5,-4,-2,0
1461662914857058,0,3,-4,-2,3,-1,-3,1
1461662914857058,1,2,3,1,-1,-4,0,0
1461662914858000,-12,-4,-2,0,11,6,0,-4
1461662914858000,0,-5,-16,-6,-3,-1,1,0
1461662914872027,-3,-4,10,-4,-5,-3,-1,-1
1461662914872027,0,2,-2,6,4,1,2,0
1461662914879075,2,-1,-3,-6,-5,-5,0,-2
1461662914879075,3,2,6,0,0,-3,2,-1
1461662914894050,3,1,3,14,7,1,1,0
1461662914894050,-2,-6,-15,-10,-8,-1,-2,-2
1461662914902032,-4,-7,-6,-5,-6,-4,-3,-4
1461662914902032,0,4,12,8,2,3,1,0
1461662914916042,-2,-3,-11,-4,-5,2,-1,-2
1461662914916042,-4,0,13,1,1,1,0,-2
1461662914925047,0,1,-4,-4,-3,0,-1,0
1461662914925047,-3,-1,-2,-5,-6,-6,-3,-2
1461662914940096,-1,0,0,0,11,7,0,-1
1461662914940096,-4,-5,-5,-2,1,-4,-1,-1
1461662914940096,0,-1,-2,-1,1,-3,-1,-1
1461662914940096,-1,-4,-3,0,0,-2,-2,-2
1461662914954108,1,2,-1,-1,-6,-5,-2,0
1461662914954108,1,-2,-11,-6,-3,2,1,-1
1461662914961112,3,9,14,7,1,0,-1,1
1461662914961112,-7,-2,4,1,-2,-2,0,-3
1461662914976108,-4,0,0,-1,-4,-2,0,-3
1461662914976108,0,-1,-3,1,2,2,-1,-1
1461662914985116,0,-2,-2,2,0,-1,-1,0
1461662914985116,1,0,-9,-2,2,0,-3,-2
1461662915000126,-1,-6,0,-8,-3,-2,-1,1
1461662915000126,-1,7,17,6,1,0,-3,-2
1461662915000126,-2,-1,-1,2,0,1,1,0
1461662915000126,-2,-2,-5,-5,-1,0,-1,0
1461662915014110,1,-6,-10,-5,-6,-4,-1,-1
1461662915014110,-2,1,-1,-1,-2,0,-3,-1
1461662915021131,-2,-1,0,-1,-2,-1,-1,-2
1461662915021131,-1,-2,-3,0,0,-1,0,-1
1461662915036186,-2,-1,-1,1,0,0,-1,0
1461662915036186,-3,-3,-3,-2,-4,-1,0,-1
1461662915045151,-1,-1,4,2,1,-1,-2,-1
1461662915045151,2,1,-3,-3,-1,2,1,0
1461662915060161,-3,2,5,5,-2,-1,0,-3
1461662915060161,-2,0,-1,-1,2,0,-3,-2
1461662915060161,-2,-3,-10,-8,-5,0,-1,-1
1461662915060161,-1,-1,2,6,3,-1,0,-1
1461662915074182,0,6,15,4,-1,1,-1,-3
1461662915074182,0,-4,-2,-4,-2,-1,1,1
1461662915081187,-4,2,5,4,1,-2,-2,-3
1461662915081187,0,-3,-7,-1,1,-3,0,-1
1461662915096168,0,-2,-7,-5,-1,0,-1,0
1461662915096168,0,-2,-3,-1,-2,-1,-1,0
1461662915105179,3,-2,-3,-5,-2,-1,-2,-1
1461662915105179,1,-1,-1,-5,-3,1,-1,1
1461662915119185,-2,1,-3,1,0,0,-1,-1
1461662915119185,4,0,0,-1,-1,-2,-1,-1
1461662915120186,-1,1,-1,-2,-2,0,0,0
1461662915120186,-3,-3,3,2,0,-1,-1,-1
1461662915134254,2,1,-4,-4,-1,-2,0,3
1461662915134254,0,5,3,3,2,3,-2,-1
1461662915141259,-4,-6,-5,-1,2,0,-1,-1
1461662915141259,0,0,2,-1,-3,-2,-1,-2
1461662915156269,-1,0,-3,0,-2,-3,-1,0
1461662915156269,-1,-2,-3,-3,-4,-1,-2,-3
1461662915164228,0,1,-5,-2,1,2,0,-3
1461662915164228,0,1,-6,-2,0,2,-2,0
1461662915179286,-2,0,16,8,1,1,-2,-2
1461662915179286,-1,-4,-5,1,-1,-4,-1,-1
1461662915180228,-4,0,2,-3,-3,-3,0,-2
1461662915180228,1,2,3,2,-2,-4,-4,-2
1461662915194296,3,-3,-9,-6,-1,-2,-1,1
1461662915194296,-1,0,8,4,1,-1,0,-1
1461662915201302,1,-2,1,1,-3,-1,-1,3
1461662915201302,-4,-7,-2,-3,-1,-1,0,-3
1461662915216253,-1,-1,-12,-6,-5,1,0,-1
1461662915216253,0,4,3,1,1,0,1,0
1461662915225318,-2,-4,-5,-1,-1,1,-3,1
1461662915225318,-1,-3,0,-1,-2,-1,-3,0
1461662915239285,-3,-5,1,0,0,-3,0,0
1461662915239285,-1,-3,-7,-4,-1,-1,0,-1
1461662915240285,0,0,5,2,-1,-1,1,-4
1461662915240285,-1,0,-1,-3,-1,-4,-2,-1
1461662915254299,-2,1,-1,1,1,0,-1,-1
1461662915254299,-2,-3,-5,-3,3,-1,-1,-1
1461662915261434,-1,1,6,4,0,0,-1,-1
1461662915261434,-2,5,14,6,0,1,1,1
1461662915276457,-2,0,-7,-2,-2,1,-2,-3
1461662915276457,-4,-7,-4,-2,-1,-3,0,0
1461662915284416,6,-4,-19,-10,-3,-3,-1,1
1461662915284416,-5,0,13,6,0,-1,-2,-3
1461662915299427,1,6,12,-4,-2,-4,0,-1
1461662915299427,-1,3,-4,4,1,1,0,-1
1461662915300404,-1,-4,-6,-3,-1,0,-2,0
1461662915300404,0,-4,-9,-5,-2,0,1,-1
1461662915314431,-1,-3,-3,1,0,0,-2,-2
1461662915314431,1,-1,-1,-3,-5,-2,-2,-2
1461662915321436,-3,-1,-1,-1,-1,-2,1,-2
1461662915321436,1,-1,-4,-3,-4,-1,0,-1
1461662915336453,-2,-3,-3,-3,-4,-1,-2,-1
1461662915336453,0,0,-3,-2,0,-1,0,0
1461662915344459,-3,1,1,3,1,-1,-1,-1
1461662915344459,0,-2,-3,-1,1,-2,-1,0
1461662915359469,-3,-4,-7,-1,0,0,-2,1
1461662915359469,-1,2,5,-3,-1,-1,-3,-3
1461662915360451,-1,-1,-3,2,-1,0,0,1
1461662915360451,-2,-3,2,-5,-6,-2,-1,-3
1461662915374469,-2,-2,5,3,0,-1,-1,-1
1461662915374469,-1,-4,0,2,-1,3,0,-5
1461662915381520,-4,0,-2,1,1,0,-1,-4
1461662915381520,2,-1,-9,-4,1,-1,-2,0
1461662915396474,1,1,-1,-2,1,-2,-1,-1
1461662915396474,-1,-2,-4,-4,-3,-3,-2,1
1461662915404540,1,0,7,0,-2,-4,-1,-2
1461662915404540,0,-2,-7,0,-1,0,0,0
1461662915419489,-3,-4,-7,-3,-1,2,-1,0
1461662915419489,-3,1,2,0,-4,-2,0,1
1461662915420490,2,1,-3,-3,0,3,2,0
1461662915420490,-6,-4,-1,-1,4,-2,-1,0
1461662915434504,1,1,-1,2,-2,-6,0,0
1461662915434504,-1,-2,-4,-4,-3,-2,-2,0
1461662915441510,1,2,1,-1,-1,2,0,0
1461662915441510,-2,-1,-5,-2,3,5,0,-4
1461662915456517,-3,-2,-3,-4,0,0,0,-3
1461662915456517,-1,0,4,3,3,-1,-2,-1
1461662915464523,-2,-2,5,1,-2,-5,-2,-2
1461662915464523,3,1,-6,0,-2,-4,0,1
1461662915479533,1,1,3,-12,-5,-3,1,1
1461662915479533,-1,-3,-2,14,0,-2,-1,0
1461662915480534,-2,-3,-4,-2,0,1,-1,-1
1461662915480534,-2,0,1,-4,-1,-2,-2,-1
1461662915495541,-1,-3,0,6,1,0,0,-1
1461662915495541,1,3,-2,-8,-2,-3,0,-1
1461662915501548,-2,-2,3,-4,-3,-1,-1,0
1461662915501548,0,-3,-5,1,-1,0,-1,0
1461662915516593,-3,-1,-2,-3,-3,-2,-3,-5
1461662915516593,1,0,0,-3,1,0,-1,0
1461662915524598,-5,-5,-9,-3,-3,-1,-2,-3
1461662915524598,1,2,5,0,1,0,-1,1
1461662915539622,0,1,1,5,0,0,-1,0
1461662915539622,-2,-1,0,-5,0,0,-1,-3
1461662915540628,-1,-1,-1,-2,-4,-3,-3,-1
1461662915540628,5,1,5,5,-1,-1,1,3
1461662915553632,-2,-2,-5,1,0,0,0,-2
1461662915553632,-2,-3,-1,-1,-1,-1,-1,0
1461662915561638,-4,0,2,-1,0,0,0,-4
1461662915561638,-2,-4,-18,-9,-3,-1,-1,-6
1461662915577650,-1,6,24,13,3,0,-1,-1
1461662915577650,1,-1,2,-2,0,-1,-1,0
1461662915584643,-2,-1,0,2,-2,-1,-2,0
1461662915584643,-1,-1,-3,-4,-4,-5,1,0
1461662915599693,1,-5,-8,-8,-3,-1,-1,-1
1461662915599693,-3,-1,-8,-5,-1,-2,-1,-2
1461662915607658,-1,0,10,4,2,-1,-4,0
1461662915607658,-2,-1,0,1,0,-1,1,-2
1461662915613664,-2,-4,-7,-5,-3,0,0,1
1461662915613664,1,-1,4,1,-4,-1,-1,2
1461662915621708,2,-3,-16,-6,0,-2,-1,0
1461662915621708,-2,-1,6,-1,-4,-3,-1,-2
1461662915636691,0,2,2,3,1,-1,-1,-2
1461662915636691,-1,-2,0,-1,-1,0,0,2
1461662915644743,5,3,3,0,-2,-1,1,0
1461662915644743,-1,-2,1,-3,0,-2,-1,-1
1461662915659752,-4,-2,-3,1,2,-2,0,0
1461662915659752,-3,1,-1,-1,-1,-3,-1,0
1461662915660720,0,-2,-13,-6,-2,-1,-2,-2
1461662915660720,-2,4,16,8,1,0,0,1
1461662915673706,1,-1,-8,-5,-2,0,-1,-1
1461662915673706,-5,-2,1,-3,-2,1,-3,-8
1461662915681712,-1,0,3,2,2,0,1,1
1461662915681712,-2,-2,-10,-2,0,0,-2,2
1461662915696721,2,-2,-5,1,-1,-4,-2,-2
1461662915696721,-6,-2,-2,-4,0,2,1,2
1461662915704726,2,-1,-1,-2,-1,-2,1,4
1461662915704726,-4,0,9,2,-2,-2,-2,-9
1461662915719737,-1,-1,-3,0,1,0,0,0
1461662915719737,0,-4,-1,-1,-1,-2,-2,-2
1461662915720738,-2,0,1,1,2,1,0,0
1461662915720738,2,-2,-3,-3,-3,-2,1,3
1461662915733747,-2,-2,-2,-1,-4,-1,1,-1
1461662915733747,4,-1,-4,-4,-4,-5,-1,0
1461662915741752,-5,-4,-9,-4,-4,-3,-2,-5
1461662915741752,-3,1,7,3,-1,0,-1,-2
1461662915756859,-3,-2,-5,-2,-2,-3,-2,-3
1461662915756859,1,0,-4,-4,0,-1,0,-1
1461662915771808,-2,0,0,1,2,-2,-1,1
1461662915771808,0,-4,3,-4,0,-2,-2,0
1461662915779842,-2,1,4,-3,-2,0,-2,1
1461662915779842,0,1,2,8,0,3,0,1
1461662915780815,-3,0,-2,-4,-3,-3,-2,-2
1461662915780815,-3,-5,-10,-4,0,0,1,1
1461662915793843,1,-1,3,-1,-2,2,1,2
1461662915793843,-1,1,-1,0,-4,-1,1,-3
1461662915801828,-2,-3,0,-1,1,0,0,-3
1461662915801828,3,4,1,5,3,7,2,0
1461662915816839,-2,0,-3,-2,5,16,4,1
1461662915816839,-5,-10,-16,-9,-4,-30,-12,-1
1461662915824846,-3,6,20,7,-1,0,-6,-14
1461662915824846,0,-1,-3,2,-3,-1,1,-1
1461662915838855,0,0,2,-2,0,3,3,1
1461662915838855,-2,-4,-4,1,-3,1,-2,4
1461662915846875,1,3,4,-5,-6,-8,-1,-12
1461662915846875,-4,-3,-3,-1,-2,-4,-2,-3
1461662915855869,2,2,1,3,1,-4,-5,-2
1461662915855869,3,-2,-2,-1,3,8,3,7
1461662915861930,0,-1,-1,-3,-1,-4,-1,6
1461662915861930,-1,-4,5,10,5,3,3,3
1461662915876940,-2,-4,-10,-2,-2,-4,0,0
1461662915876940,-2,-1,7,-3,-2,-1,-4,-5
1461662915884887,5,3,9,8,3,7,2,5
1461662915884887,2,1,-10,-17,-8,0,-3,-3
1461662915898956,0,-2,4,9,1,-5,0,0
1461662915898956,-2,-1,1,2,2,4,1,-4
1461662915914921,-4,-3,3,1,5,9,5,1
1461662915914921,3,1,-5,1,7,34,10,12
1461662915916909,-4,-3,-1,-8,-8,-31,-9,-2
1461662915916909,-2,2,-1,-10,-14,-30,-15,-31
1461662915929920,-1,-2,-15,-3,-6,-7,0,-2
1461662915929920,-9,2,9,7,0,-27,-15,-8
1461662915936923,2,-1,-7,-6,2,13,1,-3
1461662915936923,2,9,10,-2,3,15,9,9
1461662915944988,5,-11,-4,6,1,4,2,8
1461662915944988,2,4,3,-5,-4,4,0,-9
1461662915958998,-8,-16,-28,-6,0,3,-1,4
1461662915958998,4,7,16,13,7,1,-1,1
1461662915966945,10,11,5,5,3,3,1,4
1461662915966945,-23,-11,-21,-11,-5,-6,-4,-7
1461662915974008,3,3,26,-3,-3,-6,-4,-5
1461662915974008,1,-11,-28,7,2,5,3,4
1461662915981955,2,5,16,-1,0,-2,-2,5
1461662915981955,-2,0,2,0,-3,-12,-7,-16
1461662915996966,8,5,0,-8,2,25,10,7
1461662915996966,-9,-14,-25,-6,6,19,6,1
1461662916004029,-3,2,11,0,-7,1,1,-9
1461662916004029,17,4,8,13,-3,-47,-11,8
1461662916018983,-7,-3,-13,-9,-9,-29,-18,-10
1461662916018983,5,-7,-15,-13,-5,-16,-3,7
1461662916027007,-2,18,38,25,6,7,0,6
1461662916027007,11,-5,-3,-10,1,22,8,1
1461662916042057,-10,12,-4,14,7,28,10,-9
1461662916042057,3,5,7,-7,4,3,2,9
1461662916043000,-2,-17,-44,-24,-7,-25,-9,3
1461662916043000,15,-1,25,10,-3,5,5,0
1461662916057025,-19,-5,-16,-9,-4,5,5,14
1461662916057025,14,-15,-30,-14,-5,-4,-6,-20
1461662916064028,-4,6,27,14,6,-5,-1,-1
1461662916064028,-3,-14,-17,-2,6,21,-10,-9
1461662916079044,14,14,50,3,-2,-8,-8,-4
1461662916079044,-17,-1,-3,4,-10,-16,7,17
1461662916087036,2,-8,-20,-16,-4,11,0,-10
1461662916087036,-7,-5,-18,-14,1,7,11,9
1461662916102065,17,-3,-3,3,-1,4,3,3
1461662916102065,-10,-20,-30,-20,-7,-8,-9,-5
1461662916103067,-1,9,25,-2,-5,-6,0,1
1461662916103067,-20,-5,-20,8,-1,9,6,0
1461662916117081,-11,3,27,-7,-4,-14,-10,3
1461662916117081,11,6,13,23,3,-23,-6,-7
1461662916124085,-25,-27,-42,-27,-6,-1,-3,-25
1461662916124085,12,31,23,7,15,28,8,24
1461662916139096,17,-14,19,27,12,14,13,10
1461662916139096,25,15,48,14,0,5,13,5
1461662916147075,-26,-13,-22,-31,-10,-28,-20,-20
1461662916147075,-9,-13,-9,-2,-8,-21,-7,6
1461662916162085,9,4,-15,-5,-5,1,-3,-15
1461662916162085,3,16,30,16,6,27,1,3
1461662916163084,6,-2,14,-5,4,42,14,7
1461662916163084,22,25,17,6,-1,-42,7,30
1461662916176094,-6,-26,-69,-16,-5,-12,-5,-20
1461662916176094,-44,1,45,25,-5,6,-10,-41
1461662916184119,10,-8,-23,3,1,-19,-7,-3
1461662916184119,1,6,11,-6,0,33,11,-5
1461662916199109,6,-25,-27,-14,-3,2,5,14
1461662916199109,-4,16,-14,-2,-8,-9,-24,-4
1461662916207175,-1,15,11,3,3,6,-1,5
1461662916207175,-2,-22,-10,-3,-6,-40,-11,-15
1461662916222183,-3,-15,-91,-33,-3,-15,-3,1
1461662916222183,-12,18,79,26,7,1,-2,8
1461662916223127,6,26,11,3,1,21,8,-4
1461662916223127,-10,-21,0,10,13,48,18,15
1461662916238141,0,3,-6,0,-7,-25,-8,-1
1461662916238141,-6,-6,-27,-19,-4,19,-2,-34
1461662916245147,9,-16,-11,17,5,-27,-8,20
1461662916245147,-34,10,14,-14,-16,-12,-25,-31
1461662916259159,20,15,28,8,6,-8,8,15
1461662916259159,-20,-6,-17,-7,0,-25,-2,22
1461662916267158,9,-4,8,14,-3,-5,6,-8
1461662916267158,12,-21,-38,-11,1,17,11,-5
1461662916282172,-25,10,54,24,6,19,-7,10
1461662916282172,21,-2,-53,-24,1,12,18,19
1461662916283169,-5,16,-11,-3,-4,-18,-6,-2
1461662916283169,-10,-6,19,-3,-4,-11,-8,-22
1461662916299181,3,-2,28,15,-2,10,0,-1
1461662916299181,7,-7,-34,-20,8,35,19,9
1461662916305188,-5,-20,-20,-12,1,-12,-11,3
1461662916305188,16,-12,-26,-3,-13,-43,-15,4
1461662916319194,8,40,75,-3,-10,-28,-9,8
1461662916319194,-37,-27,24,45,20,35,26,17
1461662916327201,20,-15,-7,-18,-19,-29,-6,-27
1461662916327201,-63,3,6,12,2,13,-4,-12
1461662916342210,-4,5,-14,-19,-6,4,4,-10
1461662916342210,-7,-18,-28,-29,-10,-5,-26,-20
1461662916343212,-13,9,-3,11,9,3,-2,-5
1461662916343212,26,-4,-11,3,9,4,-1,16
1461662916356221,-17,-2,-7,-6,-5,-15,-4,-16
1461662916356221,16,0,-54,-29,-5,30,15,0
1461662916364226,-18,-1,15,-3,-8,-21,-20,2
1461662916364226,7,10,1,-20,-12,-24,-4,-2
1461662916379237,-14,-13,27,19,8,17,8,-3
1461662916379237,43,-5,-72,-31,16,63,5,15
1461662916387243,-12,27,71,57,19,37,22,35
1461662916387243,0,-29,-46,18,-26,-86,-14,-25
1461662916402254,-11,16,48,10,-18,-11,0,-6
1461662916402254,8,-4,23,-4,-8,-46,-6,3
1461662916403253,15,-2,-23,-6,11,43,-24,-19
1461662916403253,-19,1,-11,-47,18,51,4,14
1461662916416262,4,-39,-10,16,-10,-53,-8,5
1461662916416262,-13,1,-5,-15,-20,16,20,0
1461662916424268,0,-19,-12,2,4,13,3,9
1461662916424268,27,22,32,1,20,74,53,3
1461662916439278,0,-3,-68,-45,-16,-56,-43,-6
1461662916439278,5,11,40,40,-5,-72,-38,-14
1461662916447294,-9,-5,27,-1,-10,-15,-12,-24
1461662916447294,-8,34,-46,-34,10,26,-18,8
1461662916462354,3,-23,55,42,28,79,36,-6
1461662916462354,-13,9,-35,-24,-16,-10,4,12
1461662916463297,30,13,10,4,-5,7,18,10
1461662916463297,-1,8,8,-2,9,18,9,7
1461662916476364,-21,-22,-28,27,1,-30,-9,-29
1461662916476364,16,-12,-38,-11,-13,-48,-24,42
1461662916484311,-4,-35,-43,-28,-4,-7,10,-15
1461662916484311,1,4,74,32,0,62,20,12
1461662916499380,30,29,-25,-27,11,2,-5,1
1461662916499380,-42,4,97,75,14,-25,26,-2
1461662916507387,-8,-4,-23,2,-6,-19,-22,20
1461662916507387,30,-5,-15,-34,-5,-33,-18,9
1461662916522338,-3,-6,-102,-29,-19,6,-2,-25
1461662916522338,0,-6,37,-12,-23,-22,-4,-11
1461662916523338,-11,-2,-42,-22,1,38,35,42
1461662916523338,-1,16,30,41,7,-21,-34,-37
1461662916536349,-4,7,18,2,-3,-25,-12,23
1461662916536349,-22,-3,-13,-40,-3,44,3,-30
1461662916544365,13,-8,-28,20,28,50,34,20
1461662916544365,16,1,2,12,1,4,1,10
1461662916559376,-24,-31,-45,-13,-18,-44,-14,-38
1461662916559376,19,22,43,17,3,-19,-20,-22
1461662916567386,-3,26,25,-17,-2,1,-1,5
1461662916567386,-28,-46,-57,0,-11,-18,15,23
1461662916582398,7,-3,-15,-19,0,30,7,-14
1461662916582398,-12,-7,-5,-71,-14,-64,-30,-9
1461662916583398,-20,10,75,89,2,-13,9,-8
1461662916583398,22,15,-35,2,-9,-17,-16,-17
1461662916604435,-8,29,44,36,41,118,57,14
1461662916604435,-9,-25,-128,-68,-14,9,-14,76
1461662916605403,11,15,81,22,-16,-78,-35,-66
1461662916605403,-10,-9,5,1,-19,-45,-4,-28
1461662916627456,9,2,14,-4,14,36,9,22
1461662916627456,-8,-3,-20,9,16,38,-13,-36
1461662916628434,21,-2,-39,-44,0,3,15,28
1461662916628434,8,-14,11,28,3,-25,-8,-21
1461662916642441,-25,12,-8,-28,-1,23,4,36
1461662916642441,7,-10,11,9,6,-1,6,21
1461662916643443,-24,-18,-8,38,0,-6,-28,-59
1461662916643443,-10,-13,-71,-43,1,-7,-12,-18
1461662916656492,19,-2,24,16,13,-5,9,43
1461662916656492,3,52,107,39,-18,-22,12,-14
1461662916664452,6,-20,8,10,13,52,30,28
1461662916664452,-7,15,-14,-19,-5,3,-37,-22
1461662916688457,14,-11,-40,-14,-28,-35,5,20
1461662916688457,10,-1,6,0,7,4,-5,-30
1461662916688457,14,0,-60,-30,-8,-43,-3,21
1461662916688457,-21,-10,-1,1,-1,21,5,-30
1461662916702466,-6,9,16,-3,-5,-20,-16,60
1461662916702466,-6,-11,-15,9,13,29,15,-78
1461662916703497,-15,4,-34,-23,1,20,-15,3
1461662916703497,12,-36,-74,-29,-1,-8,3,11
1461662916716493,-7,51,103,55,-4,-24,-20,-30
1461662916716493,17,25,10,14,15,22,19,36
1461662916724499,-4,-52,-46,-5,-2,9,-2,-9
1461662916724499,-10,40,69,19,-16,-31,-8,14
1461662916739494,1,-17,-15,-3,6,22,-2,-40
1461662916739494,-7,-19,-27,-5,3,10,-9,-10
1461662916747501,4,17,46,0,-24,-35,14,32
1461662916747501,-3,-12,4,-9,-2,4,-2,9
1461662916762572,-3,-7,-30,-17,-3,-13,14,3
1461662916762572,24,8,14,22,-27,-10,-19,17
1461662916763509,-49,-10,-45,-44,38,40,-8,48
1461662916763509,6,-5,2,-10,-32,-64,5,-42
1461662916776547,-17,12,9,10,23,6,-20,-93
1461662916776547,-6,-10,-12,-5,1,-19,2,4
1461662916784554,20,13,-9,-13,-18,-13,4,6
1461662916784554,1,-2,1,7,29,62,17,21
1461662916799536,1,3,7,-8,-2,-6,-8,24
1461662916799536,4,6,-14,10,-1,-8,9,-4
1461662916807555,18,10,-15,-9,-3,10,-6,-12
1461662916807555,-9,21,87,76,20,3,6,14
1461662916821565,1,-31,-18,-54,-39,-25,-10,0
1461662916821565,9,19,36,25,11,13,7,21
1461662916829595,-3,2,7,-2,-6,-2,-4,-9
1461662916829595,1,-15,-35,-20,-9,-24,-12,-13
1461662916836599,14,-16,-46,-10,-4,4,7,28
1461662916836599,-25,-19,19,10,10,30,32,5
1461662916844566,-3,2,9,2,-28,-30,-29,-40
1461662916844566,-6,-8,-5,-14,-21,-57,-17,-4
1461662916859577,-8,4,-3,10,16,38,4,-19
1461662916859577,-11,-7,-12,-1,-8,-80,-29,-19
1461662916867608,11,5,5,-5,31,75,24,8
1461662916867608,7,3,-1,-14,-4,33,3,25
1461662916881617,3,4,1,6,26,61,7,-10
1461662916881617,5,2,-9,-3,-6,-18,1,5
1461662916889624,-2,-10,-27,-17,1,10,1,-8
1461662916889624,0,-14,-40,-21,-8,12,-3,0
1461662916896603,6,36,61,63,14,-7,4,14
1461662916896603,8,10,49,5,-8,-9,-2,3
1461662916904624,-3,7,30,32,-4,-46,-17,-20
1461662916904624,5,-4,-12,-8,6,15,17,24
1461662916918675,1,-21,-14,-25,-25,-28,-6,13
1461662916918675,-11,-26,-24,-14,-2,2,-11,-20
1461662916927683,1,-6,-5,1,-3,-4,13,-9
1461662916927683,-13,0,17,4,7,25,7,-5
1461662916941693,-5,-22,-32,-14,-13,-22,-6,18
1461662916941693,-1,-3,-7,-4,-10,10,-11,-8
1461662916949654,-2,-4,-13,-16,-19,-27,-6,1
1461662916949654,-1,2,7,8,27,12,2,1
1461662916966657,-1,0,-5,0,-3,-41,-13,-18
1461662916966657,2,-5,-7,-8,13,34,8,17
1461662916966657,-1,2,-14,-9,-6,-3,-1,1
1461662916966657,6,10,-4,19,-1,0,5,6
1461662916979678,-1,-3,0,-20,0,3,-2,-11
1461662916979678,4,20,-9,0,9,14,3,6
1461662916987730,-3,6,55,57,9,-14,-1,-5
1461662916987730,-1,12,21,-2,-4,-9,-1,0
1461662917001736,2,-7,-28,-8,-3,0,0,-4
1461662917001736,2,-10,-4,-12,0,-1,2,-5
1461662917009741,1,-1,-10,-16,-7,-4,-6,10
1461662917009741,3,-4,7,-1,-3,1,4,16
1461662917024751,0,-4,9,7,-7,-1,0,-2
1461662917024751,1,-9,-12,0,-1,8,6,-29
1461662917025694,-16,3,-4,-6,2,-14,-5,-9
1461662917025694,-3,-8,1,1,-16,-2,-11,2
1461662917038704,-4,-2,-10,-10,-6,-10,0,-10
1461662917038704,-2,2,2,6,19,10,-8,9
1461662917047721,4,-10,-15,-10,14,9,1,4
1461662917047721,2,7,11,0,3,16,6,-6
1461662917061778,0,1,-4,2,2,1,0,0
1461662917061778,5,2,15,7,-10,-3,6,9
1461662917069736,-1,1,-12,-12,-1,2,-2,-7
1461662917069736,6,5,1,8,1,-8,-1,2
1461662917084745,5,11,7,18,8,4,0,-2
1461662917084745,0,-5,1,-2,2,-4,0,-2
1461662917085748,-4,17,12,-16,-14,-10,-6,-5
1461662917085748,-2,-6,7,-7,-2,-6,2,0
1461662917098856,-1,0,-1,3,2,0,-2,-6
1461662917098856,-3,-6,-6,0,-3,0,0,4
1461662917107835,-1,-17,-21,-8,-4,-3,0,3
1461662917107835,0,9,5,-2,-8,-3,0,-5
1461662917121819,-4,0,14,4,-6,-7,-2,-4
1461662917121819,-5,-8,-18,-9,-17,-9,-7,2
1461662917129820,6,1,-3,2,15,12,2,2
1461662917129820,-4,2,-2,2,8,12,-2,-1
1461662917144851,0,-2,-11,-6,-1,1,0,1
1461662917144851,-3,2,-1,4,6,8,-4,0
1461662917145835,-6,-3,-1,1,-9,-5,2,-7
1461662917145835,-6,-2,0,1,-4,-13,0,0
1461662917158861,-4,-4,-4,-11,-5,6,-5,1
1461662917158861,0,-4,-12,-6,5,-9,0,3
1461662917166856,8,5,3,8,-2,-3,-4,0
1461662917166856,-4,-12,8,6,3,-3,-1,1
1461662917181913,1,3,3,2,-5,-9,1,-1
1461662917181913,2,2,2,1,-2,1,2,-2
1461662917189900,-1,-4,3,-9,-1,-4,-1,-1
1461662917189900,1,5,-5,-4,-4,-1,0,0
1461662917204911,-8,-20,-1,1,2,0,-2,-1
1461662917204911,-8,-5,-10,0,3,0,1,-1
1461662917205886,-3,-7,2,4,-3,3,-2,-1
1461662917205886,7,14,6,2,6,-3,0,2
1461662917218893,8,8,6,-1,-11,-9,-4,3
1461662917218893,-3,-6,-10,1,-9,-6,0,2
1461662917226928,-8,0,1,-1,20,25,3,-1
1461662917226928,-1,-1,-2,-6,-1,2,0,1
1461662917241922,-2,8,-4,-2,6,-2,0,-1
1461662917241922,0,1,-1,0,-4,-3,0,-1
1461662917249929,1,0,5,2,-10,-6,-3,1
1461662917249929,3,-5,-11,-8,0,-2,0,0
1461662917264929,1,8,-13,-4,-2,1,0,0
1461662917264929,-3,-4,5,10,2,-1,1,1
1461662917265931,-5,-6,3,-4,-3,-6,0,-1
1461662917265931,-2,-2,-8,-1,3,0,0,0
1461662917278983,-5,-5,0,0,-1,-1,0,1
1461662917278983,-3,5,2,1,5,1,-3,-5
1461662917286969,2,1,-1,-2,-7,-4,0,3
1461662917286969,1,-10,-1,-1,-7,-10,-3,0
1461662917301979,0,1,0,-1,9,6,1,-2
1461662917301979,4,-1,-3,-4,-5,4,2,3
1461662917309985,3,1,3,-6,-7,-3,-3,-1
1461662917309985,-5,-7,-5,-3,-8,-3,-3,-2
1461662917324970,-5,-7,0,0,-1,-6,-5,-5
1461662917324970,3,8,2,0,10,14,3,0
1461662917325976,-2,-9,-10,0,2,-2,0,1
1461662917325976,-3,5,0,2,-3,-3,-1,-3
1461662917338979,-3,-5,0,-2,-4,-3,-3,-4
1461662917338979,-1,-1,1,-4,-3,-5,-3,-5
1461662917346973,-1,4,-5,3,-6,-4,-1,-5
1461662917346973,5,0,-3,2,3,1,1,0
1461662917362045,0,-2,-4,4,0,2,2,-3
1461662917362045,1,4,8,-2,-1,-2,0,-2
1461662917370000,-6,-10,-8,-2,2,1,-1,-2
1461662917370000,-2,9,25,14,4,0,2,-1
1461662917385011,-3,-6,-10,-6,1,-1,-3,-4
1461662917385011,2,-4,-5,-3,4,-2,0,-2
1461662917386001,4,2,-2,-2,-8,-6,-1,1
1461662917386001,-2,-3,-2,-8,-2,3,-2,-1
1461662917408015,-4,2,4,-1,-3,1,-2,-2
1461662917408015,-6,-4,1,0,-1,1,-1,-1
1461662917409015,0,-4,-5,-1,-3,-3,-2,1
1461662917409015,1,0,-5,-3,-3,0,-2,-4
1461662917422025,3,3,2,0,-10,-12,-1,1
1461662917422025,-4,-4,-4,1,8,0,-3,-4
1461662917429089,-3,0,1,-1,2,4,0,-6
1461662917429089,0,-4,-4,-5,-4,-3,0,-1
1461662917445100,-1,-2,-4,1,4,5,0,-1
1461662917445100,1,1,-13,0,-8,-5,-2,-1
1461662917446057,-3,-1,6,4,3,-7,-1,-3
1461662917446057,-3,-4,-5,0,4,2,-2,-3
1461662917461070,7,3,4,-1,-3,3,1,0
1461662917461070,0,0,2,3,0,2,-1,1
1461662917467069,0,4,-5,-4,-2,1,0,-3
1461662917467069,-2,-4,-6,-6,-8,-6,-1,0
1461662917481080,0,-1,-2,-3,2,9,0,2
1461662917481080,-1,4,12,6,0,-1,-2,1
1461662917490133,0,-3,1,-1,0,0,-2,0
1461662917490133,0,0,-1,-4,-2,-5,0,-2
1461662917506143,1,0,0,-1,2,-5,-1,-1
1461662917506143,1,0,-2,-2,-6,-2,1,1
1461662917507102,-7,-6,-7,-7,-4,-4,-3,-2
1461662917507102,2,1,-6,4,4,3,0,4
1461662917519107,-4,1,4,0,-2,-4,-3,-3
1461662917519107,-4,-4,0,-2,4,-1,-1,-3
1461662917527126,4,3,-4,-3,-12,-10,1,3
1461662917527126,-2,-3,0,-6,1,8,-1,-2
1461662917542115,-1,-3,-11,-2,0,3,1,1
1461662917542115,-2,0,8,7,-3,-1,-2,0
1461662917550142,0,0,9,2,4,3,0,2
1461662917550142,-4,-1,-5,0,0,-3,-2,2
1461662917565126,4,2,7,6,1,3,2,4
1461662917565126,-2,1,-1,1,-6,-4,-2,-1
1461662917565126,-1,-2,-2,3,-1,2,2,1
1461662917565126,0,-2,-1,0,2,-4,0,0
1461662917579150,-3,-3,-4,-6,-7,0,-3,-4
1461662917579150,-1,-3,-2,-4,-3,0,-1,-1
1461662917587159,4,1,0,2,-8,-6,-2,-1
1461662917587159,-6,-4,-2,-3,8,11,-1,0
1461662917601164,-5,-1,-1,0,3,-6,0,-1
1461662917601164,0,-1,-1,-3,2,2,0,0
1461662917610170,0,-1,-2,-3,-2,0,2,-1
1461662917610170,0,-1,-1,0,-5,-7,-2,-3
1461662917625169,1,2,2,1,-2,-1,0,-1
1461662917625169,-6,-4,-4,-9,-6,-1,-1,-2
1461662917625169,-2,-1,-3,0,3,2,-2,-1
1461662917625169,2,4,-4,0,-3,-1,-1,-1
1461662917639190,-2,4,20,14,4,5,1,0
1461662917639190,1,4,9,7,3,0,0,-2
1461662917647184,2,0,0,2,4,1,-1,0
1461662917647184,2,-3,-5,-3,-3,-3,0,-1
1461662917661233,-4,-3,-6,-4,-1,-3,-2,-1
1461662917661233,1,0,-2,1,-4,-2,0,0
1461662917670219,-4,0,1,-1,-11,-9,-2,-2
1461662917670219,-4,-3,1,1,6,10,0,-6
1461662917685211,3,-2,-8,-7,3,5,1,2
1461662917685211,0,-3,-2,-2,1,2,-1,-1
1461662917685211,1,0,-3,-2,3,1,-3,-3
1461662917685211,0,-3,3,0,-10,-10,-1,0
1461662917699280,-6,-4,-5,-4,2,1,-2,-5
1461662917699280,0,1,-2,-3,-2,-1,0,-1
1461662917715237,-1,0,-2,0,0,1,0,-2
1461662917715237,-5,0,0,-2,-1,0,-3,-3
1461662917721242,0,-3,-3,0,0,-1,-1,-1
1461662917721242,0,-3,-2,1,-2,-5,-1,-1
1461662917730247,-2,1,9,0,-1,-1,-1,0
1461662917730247,2,1,-3,-1,1,-1,-2,1
1461662917744275,0,-2,-8,-7,-3,-3,-3,1
1461662917744275,-4,-1,-8,-1,0,-1,-2,-4
1461662917752280,-2,-2,-6,-4,1,1,-1,1
1461662917752280,2,5,20,16,5,1,1,2
1461662917768281,2,-1,1,-2,-2,-6,0,1
1461662917768281,0,-3,-4,-3,-7,1,0,2
1461662917768281,-4,-4,-5,-4,12,6,-1,-2
1461662917768281,0,-1,-5,-7,-3,0,0,0
1461662917781337,-5,-4,-6,-2,-3,-3,0,-4
1461662917781337,2,2,2,2,2,-3,0,0
1461662917790302,-4,-4,-4,-2,-5,-2,-1,-1
1461662917790302,1,-1,-2,-2,-3,-4,0,2
1461662917804392,-5,-2,-4,0,-1,-1,-1,-2
1461662917804392,-2,-3,-8,-8,-3,-3,1,-1
1461662917812398,1,3,0,1,-1,-2,-2,1
1461662917812398,0,-1,-1,-1,1,0,-1,-2
1461662917828381,1,1,3,1,-1,5,-1,-1
1461662917828381,0,0,1,-1,-2,2,0,-2
1461662917828381,2,-4,-8,-2,-1,-2,-1,0
1461662917828381,-2,0,1,-3,-4,-8,-1,0
1461662917841389,3,-1,-9,1,-1,1,-1,2
1461662917841389,-3,-1,9,2,4,3,-2,-2
1461662917849394,1,1,2,3,2,0,-1,0
1461662917849394,-3,-1,1,1,-1,2,0,-1
1461662917881401,-3,0,0,-2,-10,-6,-2,-6
1461662917881401,-5,-1,-7,-4,3,1,-2,-3
1461662917881401,0,2,3,-3,-9,-4,-1,0
1461662917881401,-2,-2,-1,-4,-5,-3,-2,-2
1461662917883390,-4,-4,-3,-1,1,-2,0,-2
1461662917883390,-2,-4,-7,-5,-4,-4,1,0
1461662917887406,1,0,0,3,3,2,2,0
1461662917887406,-1,-1,-1,3,0,1,0,1
1461662917901551,2,2,1,-2,-3,-3,-2,1
1461662917901551,5,2,3,-3,-1,-2,-2,1
1461662917909646,-6,-7,-7,-7,-2,-1,-1,-4
1461662917909646,-1,-2,-8,2,2,1,0,0
1461662917924615,0,1,6,2,-3,2,-1,0
1461662917924615,-1,0,2,2,0,-1,0,0
1461662917932617,2,3,-1,-5,-5,-1,-2,1
1461662917932617,-1,-5,-4,-4,0,1,-2,-3
1461662917955692,-2,-6,-5,-3,1,0,0,-1
1461662917955692,-6,0,1,1,0,-2,-1,-1
1461662917956627,4,2,-3,6,1,1,1,1
1461662917956627,-2,-1,7,1,-2,-2,-2,-2
1461662917961695,-1,-1,0,-1,1,-3,-2,0
1461662917961695,-2,-5,-2,-5,-4,-1,0,0
1461662917969655,-3,-1,-1,-3,-1,1,0,-1
1461662917969655,1,1,-4,-3,1,1,0,1
1461662917983665,-2,-3,-1,-5,-3,-5,-3,-2
1461662917983665,1,0,-9,2,1,2,-1,-2
1461662917992649,-1,0,13,6,2,-1,-2,-3
1461662917992649,5,-1,1,-3,-3,-1,0,3
1461662918007728,-9,-2,-1,1,6,1,0,-3
1461662918007728,-2,-5,-8,-6,-3,-3,-3,-2
1461662918008689,-1,0,4,4,0,1,-1,0
1461662918008689,-3,0,-4,-5,-3,-4,-2,-2
1461662918021692,4,0,2,1,0,-2,1,2
1461662918021692,3,2,4,2,1,0,-3,0
1461662918029698,-3,-8,-5,-7,-2,-1,-1,-3
1461662918029698,-6,-5,-7,-1,4,0,-2,-2
1461662918043699,2,0,2,1,-3,-1,0,0
1461662918043699,-3,-1,-8,-1,0,-3,0,-1
1461662918052708,-1,3,-5,-1,-4,0,-2,0
1461662918052708,0,0,6,-2,-1,3,1,-1
1461662918067712,-1,0,-4,-1,-2,0,-1,0
1461662918067712,0,-1,4,-1,-2,-3,1,1
1461662918067712,-1,-1,-2,-5,-4,-2,0,-1
1461662918067712,-2,-1,-3,-1,-2,-3,-1,-3
1461662918081722,-2,0,-3,-2,3,1,-1,-1
1461662918081722,2,1,-1,-1,-2,0,-1,-1
1461662918089755,-2,-3,-5,2,1,-1,-1,2
1461662918089755,0,0,5,3,-1,1,0,0
1461662918103764,3,-2,0,-1,-5,-1,0,1
1461662918103764,-3,-2,1,0,0,-3,-2,-2
1461662918112790,-2,-1,-6,-5,2,1,-3,-2
1461662918112790,-3,-1,-7,-4,-5,-1,-1,-1
1461662918127775,-2,0,4,3,0,-1,-2,-1
1461662918127775,-2,-3,4,1,2,-2,-1,-4
1461662918127775,2,3,2,3,0,-2,2,2
1461662918127775,-2,0,0,1,1,-2,0,-2
1461662918141781,-1,-1,-7,-6,-3,1,-1,-1
1461662918141781,1,2,2,1,-3,1,-1,0
1461662918149787,1,-2,0,-5,-4,-5,1,-1
1461662918149787,-4,-4,-4,-5,1,2,0,-1
1461662918163784,0,-2,-5,-2,-5,0,-1,-2
1461662918163784,-1,-2,-7,0,1,0,-1,-1
1461662918171790,-2,-2,5,2,1,-1,-2,-2
1461662918171790,-1,0,1,0,-1,-1,-1,-1
1461662918187802,0,1,2,-1,-1,-4,1,-1
1461662918187802,-2,-3,0,-5,-5,-3,1,1
1461662918187802,-1,-3,-5,-3,-2,-1,-1,-1
1461662918187802,0,-1,4,2,-2,-3,0,0
1461662918201854,-1,0,-3,-1,1,-1,0,-1
1461662918201854,5,3,5,5,-1,1,0,2
1461662918209859,-3,-2,-3,-3,1,-1,-1,-3
1461662918209859,1,0,0,2,1,-1,-2,0
1461662918223813,2,1,5,0,0,1,-1,0
1461662918223813,-4,-1,-5,-3,-2,-1,-1,-1
1461662918239829,0,-2,4,4,0,0,-1,1
1461662918239829,0,4,-4,-4,-3,-1,-1,0
1461662918247835,0,-4,1,1,-5,-3,0,-1
1461662918247835,0,1,2,-1,1,-2,-1,-2
1461662918247835,-4,-3,1,1,-1,5,-1,-2
1461662918247835,2,-4,-4,-1,0,-2,-1,-1
1461662918261866,-5,-1,-5,-1,0,-1,-1,-2
1461662918261866,1,0,0,0,-2,0,1,0
1461662918269872,-3,-2,-3,-4,-2,-5,-2,-1
1461662918269872,0,0,4,5,4,0,0,-1
1461662918283873,0,1,3,-1,-3,-3,-1,0
1461662918283873,-5,-4,-3,-4,-1,-1,0,-2
1461662918292859,3,0,-3,-1,-1,-2,-1,-1
1461662918292859,-4,3,0,-1,-3,0,-2,-3
1461662918306928,-3,-3,-3,-5,-3,-4,-1,-3
1461662918306928,1,0,5,1,-1,-3,-1,1
1461662918307873,-3,-1,-5,0,-2,-3,-1,-1
1461662918307873,0,-4,-5,-2,-2,-1,1,0
1461662918321891,0,-2,-10,-4,0,0,-1,0
1461662918321891,-1,-1,4,5,0,2,0,-1
1461662918329901,-5,1,2,-1,0,0,-1,-3
1461662918329901,-1,-4,-2,-3,-3,-3,-1,0
1461662918343924,1,-2,-8,-5,-1,0,-1,-2
1461662918343924,-4,-6,0,3,-1,-2,-1,-2
1461662918352903,3,3,2,-1,0,-1,0,-1
1461662918352903,1,-2,-2,-1,4,2,0,3
1461662918366929,-3,-2,-1,-1,-1,-2,-3,-7
1461662918366929,1,-1,1,0,2,1,-1,-1
1461662918367930,5,2,-7,1,-1,-2,-2,0
1461662918367930,2,-1,-6,-11,-3,-1,2,0
1461662918381939,-5,4,15,9,1,1,-1,-2
1461662918381939,-1,0,1,4,3,1,0,2
1461662918389990,-3,1,12,8,1,0,-1,-1
1461662918389990,-2,-6,-10,-4,-1,-1,-1,-3
1461662918403994,0,4,8,2,-3,-1,2,1
1461662918403994,-1,-2,-8,-9,-3,-2,-1,3
1461662918412092,-3,-5,-5,-5,-4,1,0,-2
1461662918412092,-1,0,4,4,-2,-2,-1,-5
1461662918427073,-3,-4,-4,-5,1,-2,-1,-1
1461662918427073,0,0,-1,0,0,-3,-3,-2
1461662918428044,-3,-5,-8,-5,0,-1,-1,7
1461662918428044,-3,-3,-1,-3,-4,0,-3,-7
1461662918442100,0,-5,-8,-5,-3,-2,-2,-4
1461662918442100,-1,2,-17,-7,-5,-3,-1,-1
1461662918449118,1,-5,-3,-7,-2,-2,-2,-2
1461662918449118,2,5,5,3,-1,-3,1,3
1461662918464072,0,8,31,26,9,4,-1,1
1461662918464072,0,0,4,-2,0,-2,-2,-3
1461662918472101,1,-4,-11,-14,-6,-2,-2,-4
1461662918472101,-6,-5,-6,-5,-2,1,0,-1
1461662918488094,-1,-2,-5,-6,-2,-2,1,1
1461662918488094,-2,-2,2,-4,-2,1,-1,2
1461662918489092,-5,2,5,7,4,-1,0,0
1461662918489092,-3,-4,-1,0,-2,-3,-5,-13
1461662918502122,0,-6,-10,-4,-5,-2,-1,0
1461662918502122,-1,-3,-2,-3,1,1,0,-2
1461662918510130,2,0,-8,-6,-3,0,0,-3
1461662918510130,-1,2,14,11,3,0,-2,2
1461662918524112,-1,-1,-3,1,1,1,0,3
1461662918524112,0,0,-3,-1,-2,-2,-1,-1
1461662918532133,0,0,0,-5,-3,1,0,-3
1461662918532133,-1,6,14,13,5,-2,1,3
1461662918547144,2,-1,-3,0,2,-2,-1,-2
1461662918547144,0,-1,5,1,-1,-1,0,-2
1461662918548130,1,-4,-18,-5,0,-3,0,3
1461662918548130,-3,2,10,1,-1,0,-2,-3
1461662918561155,-2,-4,-5,-5,-4,-2,0,1
1461662918561155,-2,-4,-15,-9,-5,-3,-1,-1
1461662918578152,-6,1,14,8,2,-1,0,-2
1461662918578152,-1,-2,-14,-6,-1,-2,-2,-2
1461662918584167,1,1,4,2,1,4,0,5
1461662918584167,2,-4,2,5,3,9,4,-6
1461662918593173,-3,1,-1,-3,0,3,-2,-6
1461662918593173,-2,-10,-26,-15,-4,0,0,-1
1461662918606183,2,7,15,7,-1,-12,-7,-6
1461662918606183,-2,5,-1,3,1,-9,-3,4
1461662918631203,5,1,7,3,-4,-7,-1,8
1461662918631203,1,-4,-1,-1,-3,-2,-2,-2
1461662918632201,-6,-2,-12,-16,-2,5,-2,-3
1461662918632201,-5,-4,-6,7,0,1,1,1
1461662918633202,1,-1,11,4,1,6,2,6
1461662918633202,-2,-6,-18,-7,-1,2,-1,-6
1461662918644236,0,-7,-11,-11,-3,-1,0,-8
1461662918644236,-1,10,17,1,0,1,-3,-3
1461662918653206,5,-5,-12,-2,-3,-8,-1,1
1461662918653206,7,9,15,6,3,7,6,18
1461662918666243,-11,-6,-11,-5,-1,3,5,-6
1461662918666243,-2,-3,-6,-8,-6,-7,-5,-12
1461662918675251,-4,1,3,-3,-3,8,0,-6
1461662918675251,5,3,5,0,0,6,2,19
1461662918681232,0,-5,-11,-8,4,18,1,-20
1461662918681232,-4,-24,-32,-13,-3,-18,-7,-3
1461662918690237,-6,3,12,2,-14,-22,-8,10
1461662918690237,4,0,-2,-17,-12,-13,-4,-2
1461662918704253,-6,14,33,26,-4,-17,-5,2
1461662918704253,-7,-10,-17,-4,0,19,9,-6
1461662918713249,19,2,6,-15,5,2,-6,-6
1461662918713249,3,-6,3,24,5,-1,-2,1
1461662918726256,-22,-9,-4,-19,-10,0,-7,2
1461662918726256,4,16,3,-13,-3,-5,1,4
1461662918735278,-3,-8,-16,14,3,-1,-4,-21
1461662918735278,13,-10,-49,-40,-11,2,4,23
1461662918741283,12,1,27,18,10,6,5,5
1461662918741283,-36,-14,10,16,4,16,5,13
1461662918758311,-26,-1,5,-8,-2,9,10,7
1461662918758311,-13,0,-8,12,1,-25,-10,-23
1461662918764420,10,6,-11,-9,-14,-14,-5,-31
1461662918764420,23,6,-27,-10,1,1,2,3
1461662918773415,7,-3,18,0,-2,-2,1,16
1461662918773415,-4,-12,-24,-13,-4,-30,-8,20
1461662918786427,4,20,32,12,-3,11,-8,-21
1461662918786427,17,13,-30,-18,-6,-32,1,15
1461662918795430,-11,-10,38,37,6,-6,-4,-13
1461662918795430,-8,-14,-11,3,-4,18,-1,-10
1461662918801434,0,-21,-66,-5,9,-2,0,-7
1461662918801434,-31,58,95,-10,1,6,-8,-17
1461662918818460,28,-9,-4,23,7,2,5,10
1461662918818460,-38,-2,25,-2,-10,-2,-2,-23
1461662918824450,6,2,-13,8,12,0,-6,9
1461662918824450,-3,-26,-30,-12,3,52,9,-7
1461662918833455,2,-12,-1,16,3,-12,3,15
1461662918833455,7,4,16,-6,-17,-45,-17,-9
1461662918846505,8,-2,-3,-14,-16,-18,0,16
1461662918846505,37,-10,-28,-10,3,6,-4,19
1461662918855487,6,32,8,-2,22,51,11,-20
1461662918855487,52,-12,-29,-19,-7,24,6,-15
1461662918861515,-54,12,73,48,9,-44,-9,-1
1461662918861515,-1,-7,6,18,-2,27,-4,0
1461662918878519,-21,4,-21,-26,-19,-19,-14,-4
1461662918878519,2,18,11,5,2,-23,-2,16
1461662918884508,10,-19,-37,-31,-6,-8,-7,-11
1461662918884508,12,1,24,35,17,9,6,-2
1461662918899534,-11,6,-10,-15,11,18,9,11
1461662918899534,-23,11,37,20,9,-6,-8,-8
1461662918906566,63,0,-8,-6,2,40,17,35
1461662918906566,-40,17,51,30,12,-1,20,-23
1461662918915513,-21,-30,-20,-42,-19,10,-11,3
1461662918915513,8,20,31,17,6,18,-7,-9
1461662918929588,-13,-14,-10,-13,-25,-55,0,-3
1461662918929588,39,0,2,8,-8,-23,2,41
1461662918938531,-47,-23,-11,23,12,-15,-14,-35
1461662918938531,-18,-27,-43,-22,-17,-2,-1,-21
1461662918944535,-6,12,18,1,22,66,14,12
1461662918944535,-1,-14,-7,-12,-14,-47,-20,-13
1461662918953542,-6,6,-56,-43,-21,-2,3,-15
1461662918953542,-6,-32,-2,16,16,16,6,8
1461662918966550,-17,45,54,26,2,-5,1,-9
1461662918966550,18,22,-10,-3,2,-14,-12,-4
1461662918975556,25,16,21,5,5,1,1,20
1461662918975556,-54,-42,10,31,16,40,25,10
1461662918990567,20,-23,-68,-33,11,50,19,43
1461662918990567,-56,-26,-1,-9,-7,-5,-1,-25
1461662918992567,47,37,17,-18,-24,-86,-17,-15
1461662918992567,-23,-2,2,14,-12,-47,-28,-14
1461662919004576,0,10,27,8,5,17,-7,27
1461662919004576,40,-19,-18,13,10,5,4,13
1461662919012583,-6,-25,-83,-52,-19,7,2,-25
1461662919012583,-2,17,11,-59,2,0,23,7
1461662919026624,-9,-12,41,33,-16,-48,-31,8
1461662919026624,9,-11,-42,-6,-5,24,6,-19
1461662919035630,2,4,63,47,24,54,23,36
1461662919035630,29,6,-64,-32,-4,-17,-12,65
1461662919050639,12,25,36,-10,-18,-50,-6,-35
1461662919050639,-28,-15,-45,-24,-5,-19,-13,-2
1461662919051627,-15,-2,-6,6,14,41,30,-15
1461662919051627,-3,-9,-14,15,1,19,-21,32
1461662919072641,23,14,16,-6,3,35,19,8
1461662919072641,-33,-13,-1,3,-13,-19,-15,-33
1461662919074627,25,7,-2,-18,5,15,23,92
1461662919074627,40,39,55,47,17,-41,-3,-7
1461662919086674,-47,-29,-40,-26,-29,-70,-40,-55
1461662919086674,3,3,-20,-20,-4,-16,-17,-52
1461662919095641,-11,26,-15,-14,10,35,2,29
1461662919095641,25,-10,55,20,16,23,36,-8
1461662919110691,-16,-24,-27,34,20,38,17,-5
1461662919110691,18,10,-6,-30,3,1,-17,44
1461662919118657,-18,-30,22,37,7,8,6,1
1461662919118657,54,57,55,17,-15,-35,19,-6
1461662919123699,30,14,20,21,3,11,-5,4
1461662919123699,-13,-14,-64,-22,8,11,22,54
1461662919132680,-11,-11,-28,-23,-13,34,-9,-75
1461662919132680,-30,-11,77,64,18,-6,-19,-45
1461662919146693,-11,-4,-47,3,3,-11,-10,-24
1461662919146693,11,19,42,1,2,-15,-17,47
1461662919155698,21,-22,-5,-3,-15,-32,-4,45
1461662919155698,-42,-20,-65,-40,-31,-5,-14,-1
1461662919168705,-25,-13,-30,-17,-5,-6,-2,-42
1461662919168705,28,-1,-21,-2,-3,12,19,52
1461662919186711,-33,27,18,1,6,-5,-16,-104
1461662919186711,-8,0,-28,2,14,24,3,11
1461662919186711,5,-6,-53,-56,-7,10,7,36
1461662919186711,-8,38,100,51,3,6,0,-63
1461662919192731,-19,-7,24,37,3,-33,-16,0
1461662919192731,14,-12,-40,-32,-10,8,-12,-11
1461662919206779,-21,12,-109,-111,-1,88,31,27
1461662919206779,29,2,87,97,36,-7,0,72
1461662919215741,31,4,-38,-24,-36,-104,-36,-77
1461662919215741,-38,-10,-29,-12,11,51,21,-26
1461662919237758,26,-17,-5,3,-6,-35,12,77
1461662919237758,-29,-4,-12,-45,-32,0,-12,-32
1461662919239759,-3,12,15,20,17,36,13,29
1461662919239759,42,10,-8,-21,-2,1,-12,94
1461662919243762,-13,-8,-6,-3,-7,-26,-15,-111
1461662919243762,-40,-24,25,35,2,-15,5,-49
1461662919258817,42,-9,-18,1,-2,-18,-9,47
1461662919258817,5,17,-2,-41,-3,24,12,-67
1461662919266792,-51,0,22,48,16,10,-27,-36
1461662919266792,-3,-16,-78,-44,-21,-15,-4,-9
1461662919275797,-6,60,75,7,-10,3,1,19
1461662919275797,12,-14,41,24,8,16,26,45
1461662919288807,67,13,20,3,-7,-20,3,51
1461662919288807,12,-14,-24,-6,0,23,28,23
1461662919297786,-39,-25,-1,-17,-2,52,-5,-66
1461662919297786,0,12,-32,-6,8,13,-8,-39
1461662919303848,-27,-12,31,20,-16,-103,-29,20
1461662919303848,-2,12,-17,-31,-19,-38,-5,-2
1461662919312838,40,-5,-23,-5,4,-9,19,46
1461662919312838,2,0,-4,5,7,39,12,-9
1461662919326821,-15,-7,2,4,18,42,-8,-2
1461662919326821,3,5,-14,-13,-2,-1,-10,10
1461662919335813,13,4,-18,-20,4,-29,-2,17
1461662919335813,-46,0,-29,8,-8,-13,-16,-61
1461662919348880,13,14,15,-4,4,20,11,-10
1461662919348880,-14,-7,35,21,2,7,-7,-48
1461662919357845,-14,-9,26,32,1,-6,-4,5
1461662919357845,6,1,-29,-21,-12,-9,-3,20
1461662919363848,40,5,42,10,0,12,29,66
1461662919363848,-12,-18,-32,-21,-8,10,-12,-42
1461662919372836,-21,-18,-19,11,8,1,0,-55
1461662919372836,-1,-13,-37,-23,-21,-63,-27,25
1461662919386863,0,-7,3,6,-11,-5,1,-16
1461662919386863,9,-2,10,0,8,20,23,23
1461662919395854,-21,-16,-12,-8,-15,-29,-28,-30
1461662919395854,-25,-2,9,-8,24,-7,-13,-32
1461662919408923,-4,-1,6,0,-1,-9,-5,5
1461662919408923,-4,8,-2,-8,12,16,4,-20
1461662919417885,11,-6,-28,-5,2,22,9,41
1461662919417885,-5,-14,-7,12,-17,-14,-4,-13
1461662919423873,1,11,8,12,13,13,5,1
1461662919423873,6,-16,-31,-23,-14,0,0,11
1461662919432881,5,28,78,42,3,-10,2,8
1461662919432881,4,-14,-10,-9,-7,-9,-3,0
1461662919446906,-1,-26,-9,3,3,13,3,2
1461662919446906,1,11,28,8,-9,-10,-1,17
1461662919455896,8,-4,-25,-22,-4,-3,1,-9
1461662919455896,-3,6,-5,7,1,5,4,11
1461662919468921,-18,-11,-3,-15,-8,29,5,-29
1461662919468921,-15,0,7,-3,9,16,-11,-39
1461662919477912,-9,-18,-7,1,-3,-18,-7,60
1461662919477912,9,14,13,-4,-46,-80,-6,10
1461662919483918,6,3,-14,-5,17,-4,-1,-9
1461662919483918,0,-8,-2,4,42,29,9,-6
1461662919492924,-1,-16,-34,-16,-2,20,3,2
1461662919492924,6,-1,12,-2,1,24,6,4
1461662919506992,5,11,-26,8,-8,-20,-5,4
1461662919506992,13,20,55,33,1,2,7,9
1461662919515954,-5,-32,-68,-31,3,-1,0,-6
1461662919515954,-14,16,49,13,-2,-1,-3,-9
1461662919528963,-7,-4,1,-8,-11,-4,-1,-4
1461662919528963,13,4,-18,-15,-3,-4,-1,12
1461662919537970,4,7,10,13,-4,-13,-7,-10
1461662919537970,6,-8,17,2,-1,11,2,15
1461662919543974,13,-3,15,-1,7,10,3,16
1461662919543974,-2,-13,-4,-5,-15,-6,-1,-2
1461662919552979,-3,-3,2,-10,-22,5,5,-20
1461662919552979,-8,-12,-15,-2,17,12,-2,1
1461662919566983,-8,-4,5,-1,-7,-23,-14,5
1461662919566983,6,2,-6,-5,-14,-1,-4,15
1461662919575993,1,9,8,7,24,19,4,-19
1461662919575993,2,-2,-4,0,1,5,11,12
1461662919589002,-5,-15,-30,-19,-20,-34,0,-3
1461662919589002,-2,7,-2,3,8,4,-7,-3
1461662919597997,-2,2,-18,3,5,4,2,5
1461662919597997,10,12,9,11,17,15,0,-6
1461662919604012,-3,5,7,3,0,1,-3,-10
1461662919604012,4,12,0,-5,-16,-15,0,-6
1461662919613006,0,26,61,28,10,-4,-2,6
1461662919613006,7,5,-10,0,-1,-5,-1,-9
1461662919627055,3,-1,0,1,-2,9,1,-3
1461662919627055,6,2,10,5,3,-3,4,8
1461662919636024,-6,-16,-9,-14,-19,-15,-7,-6
1461662919636024,0,-12,-18,-17,4,13,2,-2
1461662919658078,-6,4,4,3,5,12,1,-5
1461662919658078,1,-6,-8,0,-7,-8,0,5
1461662919660055,1,-3,-6,-9,-11,-27,-8,5
1461662919660055,3,1,5,2,-2,6,-6,-13
1461662919664057,8,1,0,4,7,22,4,-1
1461662919664057,-15,-3,-9,-3,-9,12,3,-11
1461662919673050,-2,0,-9,-8,13,10,-1,2
1461662919673050,-10,-5,-8,-6,-4,-8,3,6
1461662919687059,-1,-3,-10,5,16,-1,-8,-6
1461662919687059,-5,-3,8,12,9,-14,0,-5
1461662919696096,-4,-4,8,2,-8,7,5,2
1461662919696096,7,6,-3,-9,1,7,10,0
1461662919709132,-8,-2,14,-3,-13,-9,-12,-9
1461662919709132,-1,-7,-16,-7,-5,-10,-6,-1
1461662919718081,2,4,11,9,5,-1,-1,2
1461662919718081,0,1,-7,-10,-7,-3,-2,-1
1461662919724100,1,-6,-7,-13,-13,-6,2,-3
1461662919724100,6,3,-1,0,0,-3,-3,1
1461662919741160,-8,0,6,6,4,0,-3,-2
1461662919741160,0,1,6,3,-17,-10,1,0
1461662919746158,-2,-3,-6,-2,-2,-3,3,3
1461662919746158,-8,0,-7,-9,13,5,-6,-4
1461662919756147,5,-8,-15,-13,1,6,3,6
1461662919756147,0,-2,2,8,2,9,0,0
1461662919769128,4,-1,-3,4,4,-16,0,6
1461662919769128,-10,-3,3,3,-2,-7,-4,-6
1461662919778151,-1,-3,-2,-1,-11,-3,-3,-1
1461662919778151,-5,-4,-7,-3,4,5,-2,-1
1461662919784152,8,-2,1,-4,-7,0,0,2
1461662919784152,0,-5,-8,-4,-7,-11,-2,-1
1461662919793159,-2,-1,3,1,1,-4,-1,-1
1461662919793159,4,3,2,1,0,-4,-1,-1
1461662919807163,-4,4,7,3,7,6,1,-4
1461662919807163,-2,0,14,4,-3,-6,-1,-4
1461662919821170,-3,-5,-20,-7,2,1,-2,-2
1461662919821170,4,1,-8,-4,10,4,-1,3
1461662919829220,-1,6,9,11,4,4,0,1
1461662919829220,-3,1,18,7,-1,0,0,0
1461662919838168,5,6,-3,-3,-9,-9,0,0
1461662919838168,-3,-2,1,-3,-4,-3,-2,1
1461662919853206,-5,-7,-13,-8,4,7,2,-4
1461662919853206,1,-8,-11,-7,-2,-1,-3,0
1461662919854206,2,3,10,1,-8,-6,0,0
1461662919854206,-4,-5,-2,2,4,-7,-2,0
1461662919868193,2,-3,-6,-6,4,4,2,2
1461662919868193,0,4,1,-2,-6,-6,1,1
1461662919875208,2,1,6,3,3,3,1,2
1461662919875208,-6,-11,-10,-6,-3,-4,-1,-2
1461662919889261,-1,0,7,5,-13,-14,-1,-2
1461662919889261,-1,-2,0,-2,3,12,-1,-2
1461662919898209,4,2,0,0,10,-5,-1,-1
1461662919898209,-2,-4,3,-2,-4,1,-4,-3
1461662919913277,-3,1,-3,-1,1,2,2,-1
1461662919913277,2,0,-2,-1,-6,-7,1,1
1461662919914234,3,-2,0,-5,-4,0,-1,1
1461662919914234,-9,-2,-4,2,5,1,-2,-9
1461662919926285,2,1,-13,-4,3,2,-2,-2
1461662919926285,9,1,1,-4,-2,-2,-1,-1
1461662919935234,-5,9,4,8,0,-1,-2,-5
1461662919935234,1,-4,10,5,3,0,0,0
1461662919949303,-6,-2,-3,0,-4,4,0,-2
1461662919949303,-4,-2,-6,0,4,3,0,0
1461662919958283,1,-5,-9,-8,-11,-7,0,1
1461662919958283,-2,3,2,-1,13,0,-4,-5
1461662919973262,0,-2,-2,-2,0,9,0,-2
1461662919973262,-3,-4,-5,-3,4,4,-2,-3
1461662919974262,-5,-4,-1,-2,-3,6,-2,-1
1461662919974262,3,3,-2,1,-8,-12,0,0
1461662919986290,-2,-1,-1,-1,-3,-3,0,-2
1461662919986290,4,3,1,-1,-8,-4,-2,1
1461662919995297,-6,-4,3,-2,-3,-1,-3,-2
1461662919995297,0,0,-3,-1,1,4,0,1
1461662920009351,-2,-6,-11,-6,1,-5,-3,-4
1461662920009351,-1,0,-2,6,5,0,2,-2
1461662920018293,2,2,15,10,4,0,1,-2
1461662920018293,-3,-5,-4,-4,-6,-1,-1,-3
1461662920033302,-1,1,-4,-10,-4,-1,-2,-1
1461662920033302,-2,11,15,9,-3,-4,-4,-4
1461662920034304,0,-5,-4,-1,5,3,2,0
1461662920034304,2,0,3,3,-2,2,-2,0
1461662920046371,-2,-2,-3,0,0,-2,-1,1
1461662920046371,-2,-7,-10,-9,-7,-4,-1,0
1461662920055337,-1,1,-4,-3,4,-1,0,1
1461662920055337,-6,-4,-2,-2,-9,-3,-1,-4
1461662920069343,0,-5,-4,-1,3,-2,-4,-2
1461662920069343,-3,-1,-2,-3,-1,5,1,-1
1461662920078337,0,-2,3,-1,2,0,0,-1
1461662920078337,-2,-2,-8,-9,0,3,-1,-1
1461662920093375,-2,-5,-18,-7,-9,-7,-2,-1
1461662920093375,0,1,4,5,2,0,-1,-1
1461662920094348,2,3,10,14,-5,-5,-1,1
1461662920094348,0,2,13,1,0,1,0,1
1461662920106374,-3,-1,8,0,-2,3,-1,-2
1461662920106374,-4,-6,-16,-8,-3,-4,-2,-4
1461662920115362,-2,2,-14,-6,-3,-1,-1,-2
1461662920115362,-1,1,4,0,-2,-4,-1,0
1461662920129373,-4,4,4,0,-3,1,1,-2
1461662920129373,0,-2,-3,-1,4,-1,-4,1
1461662920138384,-2,0,4,0,1,-4,-2,1
1461662920138384,0,0,-6,-2,-2,-4,-1,-2
1461662920153396,1,1,10,4,5,4,-1,0
1461662920153396,2,2,-2,-1,-6,0,0,1
1461662920154398,-5,-7,-7,-7,0,13,-1,-2
1461662920154398,2,-1,-1,-1,-3,-7,0,1
1461662920166400,2,0,-6,0,-5,-2,0,0
1461662920166400,-1,2,-7,2,4,-1,0,0
1461662920175406,3,-2,9,1,2,3,-2,4
1461662920175406,0,-4,-3,1,-2,3,1,1
1461662920189417,-3,-1,5,1,-1,-3,0,-1
1461662920189417,2,2,-2,-2,-4,-3,-1,2
1461662920198421,-2,2,-7,-2,-1,-5,-1,-1
1461662920198421,2,1,1,3,0,4,-2,1
1461662920213434,-5,-1,2,3,1,-2,-1,-3
1461662920213434,-3,-4,3,-4,0,1,-2,-2
1461662920214433,0,-3,-3,-1,-1,-1,0,-2
1461662920214433,-1,5,1,0,0,0,-2,-1
1461662920226444,-1,0,0,-2,-3,-2,-1,-1
1461662920226444,-2,-5,-3,-3,-5,-1,0,-1
1461662920235448,-4,-3,-6,-5,-2,-2,-1,-1
1461662920235448,0,0,-7,-1,0,-4,-2,-3
1461662920249458,-1,0,1,1,0,3,-1,0
1461662920249458,-4,-5,0,0,4,-1,0,-3
1461662920258463,-1,-2,-1,-3,-5,-6,-1,-2
1461662920258463,1,-4,-3,-1,11,5,1,1
1461662920273473,2,-1,-1,-2,0,-2,-1,-2
1461662920273473,-3,-4,-1,-3,-4,-4,-3,-4
1461662920274474,3,2,4,0,-5,0,1,-1
1461662920274474,-4,-1,-9,-7,-7,-5,-3,-2
1461662920295490,-1,1,3,2,2,0,1,-1
1461662920295490,1,5,-3,6,-3,0,2,1
1461662920297490,0,-1,11,4,3,-4,-2,-3
1461662920297490,-2,-4,1,1,1,0,0,0
1461662920309500,0,-1,-2,-2,0,0,0,-1
1461662920309500,-3,-3,-5,-6,-5,-4,-2,-2
1461662920318505,-2,1,-1,2,1,2,1,0
1461662920318505,1,0,4,1,-3,-1,-3,-1
1461662920332514,-3,-1,-2,0,-3,-1,0,-2
1461662920332514,3,4,6,-1,-3,1,-1,-1
1461662920334517,-2,-4,-11,-7,-2,-3,-1,-2
1461662920334517,3,3,3,0,-1,-2,-1,-1
1461662920346583,-3,-9,-8,-5,-1,1,-1,-1
1461662920346583,1,-2,2,1,0,-1,-1,1
1461662920355547,-1,-1,-11,-4,-2,1,-4,-2
1461662920355547,2,2,-3,2,0,2,2,0
1461662920369555,3,4,10,3,3,4,0,2
1461662920369555,-4,1,4,2,-1,-3,0,-2
1461662920378549,-1,-3,-7,-5,-3,0,-1,-2
1461662920378549,-7,-5,-10,-6,-2,-4,-2,-1
1461662920392582,0,2,0,1,-4,-2,-4,-4
1461662920392582,-2,-2,3,5,5,-1,0,0
1461662920394583,1,4,7,0,-4,-4,0,1
1461662920394583,0,-1,4,1,0,2,-1,0
1461662920406658,-3,-6,-12,-5,-2,-2,-1,-1
1461662920406658,1,0,4,0,-2,2,-2,-1
1461662920415615,-2,0,-4,-5,2,0,-3,-1
1461662920415615,0,-2,-4,-4,-1,0,1,1
1461662920429617,0,-1,4,-1,0,-1,0,1
1461662920429617,-2,-2,0,-3,-5,-1,0,-2
1461662920438624,-2,-1,0,2,0,-1,-1,1
1461662920438624,0,-1,6,4,2,1,-3,-1
1461662920452671,-1,-2,1,3,-4,-1,-1,0
1461662920452671,0,-4,-8,-7,-4,-1,-1,0
1461662920454635,2,4,8,-4,-8,-3,-1,-1
1461662920454635,1,-2,-8,-4,1,-1,1,0
1461662920466657,0,0,-6,2,5,1,0,-1
1461662920466657,0,-1,12,6,3,6,1,1
1461662920475650,1,-1,-1,-2,-3,0,0,2
1461662920475650,-3,0,0,-1,-2,-1,-1,-4
1461662920489659,-4,0,3,-1,-1,-7,-3,-2
1461662920489659,-2,-2,-7,-1,0,-4,-1,0
1461662920497666,-2,-4,-7,-1,0,-1,1,0
1461662920497666,-2,3,2,-2,-4,-3,-2,-3
1461662920512714,0,1,-3,-3,-4,-3,0,3
1461662920512714,1,2,0,2,1,-5,0,-2
1461662920514691,-4,-2,-2,-1,1,1,-1,-4
1461662920514691,-3,-3,-7,-5,-2,-2,-3,-3
1461662920526692,0,1,-4,-3,0,-1,0,-1
1461662920526692,4,2,4,6,1,0,0,-1
1461662920535699,-4,-4,1,-1,-6,-1,-2,-3
1461662920535699,5,2,-5,-1,1,1,1,1
1461662920549709,-5,-5,-9,-7,-2,-3,-1,-5
1461662920549709,-5,-6,-5,-5,-1,-3,0,-1
1461662920557708,-2,-2,-9,-2,3,-1,0,-1
1461662920557708,1,0,4,3,-3,0,1,2
1461662920572734,0,0,10,4,2,-1,1,-1
1461662920572734,1,0,-12,-5,-2,-1,-1,1
1461662920574721,-2,-1,-1,-2,2,1,-2,-2
1461662920574721,-4,-5,4,1,-3,0,-3,-2
1461662920586739,2,1,1,-1,5,1,0,1
1461662920586739,1,1,4,-1,-4,-1,-1,0
1461662920595745,-2,-1,1,-2,-4,-3,0,-2
1461662920595745,-1,-1,-1,-2,0,1,-1,1
1461662920608755,-2,-4,4,0,-3,-2,-1,-3
1461662920608755,0,-3,-5,-6,-4,-3,-1,-1
1461662920617766,0,-1,-9,-1,-5,-8,0,-1
1461662920617766,-2,0,2,0,1,0,-1,-2
1461662920632776,2,3,6,4,1,2,-1,-2
1461662920632776,-3,2,-5,-5,0,-1,-4,-4
1461662920638776,-5,-7,-6,1,1,-1,-3,-4
1461662920638776,-1,-1,8,2,-3,-5,-1,0
1461662920646810,-5,-5,-14,-10,-1,1,-2,0
1461662920646810,1,1,4,4,2,-2,0,1
1461662920655779,1,4,11,4,-1,1,2,2
1461662920655779,-10,-3,-5,-1,-1,-2,-4,-6
1461662920668803,0,-2,3,3,-5,0,-1,1
1461662920668803,-2,-3,-6,-2,-1,-1,-2,-1
1461662920677811,0,-1,1,0,-1,0,-2,-1
1461662920677811,-1,0,-2,-1,-1,0,-1,1
1461662920692807,0,0,-1,0,-3,-2,-2,-1
1461662920692807,-2,-3,-3,-4,-2,-2,0,-2
1461662920698808,2,0,0,-1,2,-1,0,-2
1461662920698808,-2,-3,0,0,-2,-1,-1,-1
1461662920706876,-4,-1,0,-2,-3,-1,-1,-1
1461662920706876,3,0,-1,2,0,-2,-1,-1
1461662920715822,1,1,0,-2,-9,-3,-1,0
1461662920715822,4,-1,-7,-7,3,3,1,1
1461662920728847,-5,-2,-4,2,2,-1,0,-2
1461662920728847,-4,-3,7,4,0,0,-3,-3
1461662920737835,-1,1,-2,-2,-1,0,-1,0
1461662920737835,-5,-5,-7,-5,-2,-3,-2,-2
1461662920752848,-3,-2,-4,-1,2,-1,-1,-1
1461662920752848,-1,2,-3,0,-1,3,1,0
1461662920758907,-3,-3,-9,-4,0,1,-3,-1
1461662920758907,2,1,8,1,-1,0,1,0
1461662920775890,5,-2,-3,-8,-8,-5,-1,2
1461662920775890,-4,-1,6,1,-2,-2,0,-2
1461662920776871,-1,-2,-6,-1,2,-1,0,0
1461662920776871,-1,0,3,0,-2,0,-1,-3
1461662920788900,1,1,2,-1,0,-1,-2,0
1461662920788900,-2,-2,-5,-4,-2,1,-2,-1
1461662920797880,-1,0,-4,-7,0,3,1,1
1461662920797880,-2,0,-4,3,-4,-2,0,-1
1461662920812889,-5,2,3,3,-4,-3,-2,-6
1461662920812889,2,-3,5,3,7,4,-2,0
1461662920818909,-2,-3,-9,-6,-6,-4,-2,-3
1461662920818909,0,-1,2,2,-2,-2,1,1
1461662920835942,1,2,-2,-4,-4,2,2,1
1461662920835942,-1,-5,-4,2,1,1,1,0
1461662920836903,1,1,8,4,5,0,-3,-2
1461662920836903,3,5,1,0,0,-3,-1,6
1461662920848951,0,-3,6,-1,3,-2,0,-2
1461662920848951,1,2,-3,-3,-3,-2,0,-3
1461662920857919,-7,-9,-10,-2,0,-3,0,-6
1461662920857919,-1,-2,0,-3,1,-3,0,-2
1461662920871992,0,0,2,1,1,0,0,0
1461662920871992,-2,-2,-7,-8,-8,0,-2,2
1461662920879009,2,3,3,6,2,2,-1,2
1461662920879009,-2,-1,-1,0,0,1,-2,-4
1461662920896029,-4,-2,-5,-3,1,-1,-3,-1
1461662920896029,2,1,-1,-3,-1,-3,1,-1
1461662920897010,-1,0,-2,-6,-7,-2,0,0
1461662920897010,-5,-4,-5,-5,2,-2,-2,-3
1461662920909021,1,-2,1,2,1,1,0,0
1461662920909021,-1,2,1,1,-4,-5,-1,0
1461662920918037,0,-2,1,-3,-4,2,-2,0
1461662920918037,-2,-3,-12,2,2,2,0,-2
1461662920932046,0,1,0,3,5,1,1,-1
1461662920932046,-4,-2,1,0,2,-3,-1,-1
1461662920939051,4,1,3,1,1,-2,0,2
1461662920939051,-1,-2,1,-4,-3,0,0,-1
1461662920956074,-2,1,-4,-3,-3,-1,-2,-1
1461662920956074,-2,3,-2,-1,-2,-3,-2,0
1461662920957052,-2,0,8,3,0,-2,0,-2
1461662920957052,0,0,-3,-2,-2,2,-2,-3
1461662920969081,4,0,3,2,-2,0,0,-2
1461662920969081,2,1,1,0,-3,3,3,-1
1461662920978067,-1,0,3,4,0,-2,0,-2
1461662920978067,2,3,4,0,0,-1,1,2
1461662920992098,-3,-2,-7,-7,-3,-3,-2,-4
1461662920992098,-4,-3,6,1,-1,-3,-2,-1
1461662920999147,0,0,0,3,7,2,-2,0
1461662920999147,-1,-3,-2,0,3,-2,-3,1
1461662921015107,4,0,-6,-1,-4,-2,0,1
1461662921015107,1,-3,-3,-5,-1,1,2,1
1461662921017095,1,-2,2,1,-5,-8,-1,-1
1461662921017095,1,4,6,-3,-2,2,-2,-2
1461662921029103,-3,-5,-8,-4,-4,-2,-2,0
1461662921029103,-5,-3,-5,-1,3,7,-2,-2
1461662921038117,-1,1,-4,-2,-1,3,0,-1
1461662921038117,-3,2,4,1,-1,0,-2,-1
1461662921052230,-1,-3,2,1,-3,-5,-1,-1
1461662921052230,-3,-3,-6,-3,-3,-4,0,0
1461662921059235,-1,-1,-3,1,3,3,-1,5
1461662921059235,-4,-2,-2,3,-5,-4,-1,-2
1461662921075190,1,1,4,1,-1,-2,-1,0
1461662921075190,-1,1,2,-2,-2,-3,-2,-4
1461662921077191,1,0,-3,-3,-5,-6,0,2
1461662921077191,2,-4,-2,0,-3,-2,1,1
1461662921089199,-2,0,-1,-1,1,0,0,-3
1461662921089199,1,-3,-4,0,4,4,1,0
1461662921098204,-2,-2,0,-4,-4,0,0,-3
1461662921098204,-1,-4,-9,-6,1,0,0,1
1461662921112275,-3,-2,1,2,1,1,-2,-2
1461662921112275,-1,-2,-13,-5,0,-2,-5,-3
1461662921119234,0,2,19,9,-1,0,-1,-1
1461662921119234,-3,-3,3,0,-6,-2,-1,-2
1461662921135229,0,0,0,-1,-3,-2,-1,2
1461662921135229,-5,-1,-9,-2,0,-3,0,-1
1461662921137231,1,-1,-6,1,2,2,2,1
1461662921137231,0,-1,-2,2,-1,-1,-1,-1
1461662921149299,2,3,3,-1,-6,-3,-1,-3
1461662921149299,-2,0,8,4,0,-4,-3,-1
1461662921158247,-1,-2,-6,-6,-2,-6,-1,-2
1461662921158247,1,-1,-3,-3,-3,-2,-2,-1
1461662921172370,-1,-5,-7,-9,-2,2,0,-2
1461662921172370,6,4,6,-4,-5,-3,0,-1
1461662921179419,-4,-4,0,-1,-1,-1,-2,-3
1461662921179419,-2,-5,-6,-1,4,-2,0,0
1461662921195430,-3,1,0,1,-3,1,-3,0
1461662921195430,0,-1,2,2,1,1,-1,3
1461662921197374,-3,0,0,1,0,-3,-1,-4
1461662921197374,2,3,3,-2,4,4,-1,-1
1461662921209440,-3,-2,-3,-2,-1,-2,-1,-2
1461662921209440,-1,-6,-15,-5,-1,-1,-3,-3
1461662921218395,2,0,0,2,2,1,2,0
1461662921218395,1,0,8,-1,-5,-4,-1,-2
1461662921240414,2,1,5,5,5,2,1,2
1461662921240414,-2,-2,0,-5,0,-2,0,-1
1461662921242419,0,-6,-16,-11,-5,-4,-2,1
1461662921242419,-3,-4,-7,-6,-4,-6,-3,-1
1461662921255428,-1,4,13,6,-1,-1,1,1
1461662921255428,-1,1,2,-3,-4,-3,0,-2
1461662921257429,-10,-4,-3,3,-1,1,-3,-4
1461662921257429,0,-2,0,1,1,1,4,-1
1461662921269438,1,-4,-7,-4,2,-1,0,-2
1461662921269438,1,-2,1,-2,0,-1,-1,0
1461662921278428,-1,3,-1,-7,-2,4,-2,-2
1461662921278428,1,1,1,0,0,0,-3,6
1461662921291451,-5,-4,-4,-4,-6,-8,-3,-7
1461662921291451,-2,0,-3,1,6,3,-1,-2
1461662921300444,2,1,1,-1,1,0,-2,0
1461662921300444,-1,3,0,-2,-7,-4,-3,-3
1461662921315468,0,-3,2,1,7,-1,-1,2
1461662921315468,0,-1,-8,-2,-3,0,1,2
1461662921317468,4,1,6,-1,-2,-3,1,2
1461662921317468,-3,-2,-1,3,2,1,-1,-5
1461662921329523,0,0,7,-1,-4,-1,0,2
1461662921329523,-3,-5,-1,-5,-5,-1,-3,-2
1461662921345476,2,3,-6,4,0,0,-2,2
1461662921345476,3,0,2,0,-2,0,1,0
1461662921351538,-1,1,-4,-1,2,0,-2,-3
1461662921351538,-4,0,3,6,1,1,0,-1
1461662921360592,0,3,3,-3,-1,-1,-1,1
1461662921360592,-10,-7,-7,-8,1,-4,-2,-6
1461662921375645,-1,1,-2,1,3,-2,-1,-1
1461662921375645,1,-2,3,-6,-9,-1,0,0
1461662921377618,-2,-6,-10,-5,7,3,0,-1
1461662921377618,1,-1,-2,4,2,4,0,0
1461662921389661,3,1,6,3,-4,-2,1,4
1461662921389661,-2,-1,-5,-4,-5,-6,-4,-10
1461662921405624,-3,3,13,9,2,0,-1,-3
1461662921405624,-2,-1,-3,-4,-1,1,1,-2
1461662921411671,-7,-1,-8,-2,-2,0,-1,-5
1461662921411671,-1,2,4,0,0,0,-3,2
1461662921420620,-2,-8,-23,-8,-7,-4,-2,0
1461662921420620,-3,2,9,5,5,3,-3,-6
1461662921435658,2,-3,-6,0,-4,1,0,-1
1461662921435658,0,-4,4,-1,-3,0,-2,2
1461662921437661,-3,3,2,-6,1,-5,-1,-2
1461662921437661,3,2,-2,5,-5,-4,-2,2
1461662921449669,1,-2,-2,-1,1,-3,-1,3
1461662921449669,1,-5,-1,-1,1,1,3,3
1461662921458662,-1,-4,3,-2,-1,2,-2,-3
1461662921458662,-2,2,1,-2,-6,-15,-2,-2
1461662921471671,-4,-4,-14,-9,0,-10,-9,-8
1461662921471671,2,5,1,4,4,-2,0,3
1461662921480664,-1,-2,2,-1,-4,5,6,2
1461662921480664,2,-1,8,4,2,9,0,-7
1461662921495711,2,-5,-13,-5,-5,5,3,3
1461662921495711,-2,2,9,7,5,-4,-1,-4
1461662921496686,-6,-6,0,-3,-1,7,-4,-8
1461662921496686,-2,-1,-29,-19,-3,-14,-4,1
1461662921508683,-7,2,16,13,-2,-4,-2,-5
1461662921508683,-1,-3,4,0,-2,-1,1,0
1461662921518690,2,-1,-5,0,-3,-1,1,4
1461662921518690,-1,2,6,2,2,4,-1,-4
1461662921531704,2,-4,-9,-6,-3,1,-2,-4
1461662921531704,-3,2,9,3,-1,-3,-2,-1
1461662921547711,-2,-6,-1,-1,1,-1,1,0
1461662921547711,-3,-3,-8,-13,-5,5,-1,3
1461662921554716,-2,2,-6,2,5,8,6,-1
1461662921554716,-4,-6,-12,-1,-4,1,4,-4
1461662921561720,1,1,4,5,-5,-18,-11,6
1461662921561720,-1,4,8,2,-2,2,-1,3
1461662921568725,-3,-4,-4,-5,3,2,-2,-3
1461662921568725,-5,-7,-21,-22,-7,-4,-6,-13
1461662921577730,0,4,15,15,0,-2,0,-4
1461662921577730,0,-2,-2,-4,-10,-9,0,-1
1461662921600746,0,-7,27,12,6,12,3,-1
1461662921600746,5,1,-21,-23,-3,0,2,5
1461662921601747,-2,-6,-31,-12,-8,-12,-1,4
1461662921601747,2,14,15,16,6,4,1,4
1461662921614757,-1,0,2,2,1,17,5,-4
1461662921614757,0,1,10,16,8,-3,-2,3
1461662921621761,-5,-3,5,-13,-8,-12,-6,-6
1461662921621761,1,-7,-27,-17,-6,-6,-1,-1
1461662921628817,0,-5,-17,-8,-12,-17,-9,1
1461662921628817,-3,-4,24,8,4,21,3,-6
1461662921637827,4,7,12,10,0,1,3,-4
1461662921637827,-2,-9,-6,-1,-2,7,2,11
1461662921651859,1,9,1,-5,-5,-5,-8,-6
1461662921651859,4,5,-3,-13,0,-12,-3,-8
1461662921660839,-7,-2,-9,25,7,0,1,0
1461662921660839,3,-1,1,-6,4,13,9,5
1461662921674894,7,1,-2,-6,-8,-28,-9,10
1461662921674894,-3,-7,5,12,-1,-1,-2,3
1461662921681854,-4,-8,-4,-9,1,17,10,-6
1461662921681854,-2,-8,-7,-3,10,-7,-11,5
1461662921688904,-6,-8,-21,4,-1,-9,-3,-3
1461662921688904,4,17,22,8,-2,-10,2,5
1461662921697854,15,16,18,-13,-6,-2,0,-2
1461662921697854,-12,-17,20,12,2,46,6,-5
1461662921711920,1,6,-31,-26,-6,-29,-4,-9
1461662921711920,24,-30,-46,1,-10,-22,-19,-1
1461662921720881,-19,9,28,8,5,33,9,-4
1461662921720881,3,7,21,14,20,23,13,3
1461662921734890,-4,-4,-31,-22,-12,-10,3,11
1461662921734890,15,3,-3,-10,-32,-62,-20,4
1461662921741942,-8,-7,-1,-6,-5,-22,-10,-11
1461662921741942,7,2,-1,-5,-2,13,1,-15
1461662921757953,-16,-6,17,6,8,17,7,16
1461662921757953,-3,13,6,-1,-2,0,2,2
1461662921759954,5,-20,-45,-11,5,4,-6,-5
1461662921759954,-7,14,34,16,2,-8,-3,6
1461662921771961,-4,-2,-7,-3,-4,4,4,-5
1461662921771961,-7,29,40,16,7,18,7,9
1461662921780911,10,-35,-44,-13,-8,-20,-8,3
1461662921780911,-19,10,-48,-34,-13,-21,-2,-15
1461662921794981,8,19,87,61,35,73,24,50
1461662921794981,-5,-24,-25,4,10,5,-2,-41
1461662921801983,12,41,54,-11,-25,-43,-29,-9
1461662921801983,-26,-64,-26,-10,-22,-42,-16,-15
1461662921817967,-3,14,6,15,2,15,12,-3
1461662921817967,-37,0,12,1,14,52,21,5
1461662921819945,21,1,-26,-18,15,76,17,1
1461662921819945,33,0,-21,-3,-13,-55,-10,1
1461662921831948,-5,7,5,-23,-28,-84,-27,-16
1461662921831948,-3,-13,-14,8,25,68,12,8
1461662921840955,-13,-12,-18,-14,1,3,3,-10
1461662921840955,9,6,29,8,-24,-64,-23,23
1461662921854963,5,-3,-16,-1,-7,-6,-1,-37
1461662921854963,5,20,12,-24,-14,-46,-8,25
1461662921868974,-5,6,-12,12,33,78,33,8
1461662921868974,-13,-15,-27,-16,12,74,21,-5
1461662921877979,1,-10,-8,-16,-10,-42,-19,-12
1461662921877979,-10,-21,-17,9,-15,-40,-26,10
1461662921879981,-8,-8,16,3,-11,-32,-3,-8
1461662921879981,-1,-7,1,-21,-2,-8,4,5
1461662921891989,-2,5,-51,-11,-7,-20,-5,6
1461662921891989,18,18,13,6,2,32,6,-34
1461662921900999,-17,-29,-48,-9,-8,1,8,12
1461662921900999,7,49,5,2,1,13,3,29
1461662921915019,8,-25,21,2,-3,17,-7,-34
1461662921915019,-9,-8,-2,-26,6,16,1,-5
1461662921922022,21,-2,-56,-1,33,79,45,24
1461662921922022,1,15,51,56,14,-67,-13,18
1461662921938031,-25,3,12,1,-31,-42,-39,-4
1461662921938031,-7,-36,-74,-30,-31,-87,-28,-36
1461662921940052,17,59,98,31,-15,-29,-11,29
1461662921940052,-5,18,-4,-12,32,100,14,3
1461662921952061,-3,-39,-23,21,36,73,33,-4
1461662921952061,7,15,16,5,9,81,21,2
1461662921968045,-10,-19,11,17,26,-19,-10,-7
1461662921968045,-4,-8,-66,-56,-64,-109,-24,35
1461662921975051,19,-23,0,27,-16,-45,-19,-22
1461662921975051,-9,24,-6,-27,4,-3,12,-14
1461662921982068,2,-1,48,20,1,28,-8,9
1461662921982068,-12,3,33,35,18,22,7,34
1461662921998078,-9,-10,-17,-40,2,19,2,27
1461662921998078,-13,-44,-24,-16,3,11,-13,-40
1461662922000104,11,11,-34,10,-10,-64,-17,-38
1461662922000104,-4,-8,-44,-39,-22,-30,-3,-21
1461662922012113,4,18,85,51,4,-15,13,27
1461662922012113,-1,4,21,19,21,53,30,7
1461662922021092,-10,-20,-38,-25,-12,-20,-40,9
1461662922021092,29,30,-44,-43,22,109,51,-27
1461662922035101,-1,32,80,76,16,-49,-24,54
1461662922035101,-15,-16,34,24,-38,-94,-45,-45
1461662922042158,-2,1,20,-3,-16,-50,-14,-23
1461662922042158,27,-25,-54,-16,9,59,10,14
1461662922058166,11,-9,-64,-58,6,59,33,35
1461662922058166,1,28,91,46,20,-4,3,11
1461662922064114,-20,-15,3,22,-19,-41,-19,-42
1461662922064114,-41,8,28,12,28,84,3,-71
1461662922072137,-25,12,-10,3,10,3,-13,1
1461662922072137,49,29,-31,-29,-23,-40,25,59
1461662922081142,-5,-25,-17,-17,1,31,10,18
1461662922081142,18,-8,26,44,27,-2,1,36
1461662922095191,-14,5,-19,-49,-9,28,-6,-77
1461662922095191,-23,-22,-46,-7,-6,7,-4,-37
1461662922102167,12,35,77,44,4,-22,1,60
1461662922102167,5,-6,14,19,-14,-67,-23,16
1461662922118178,36,14,-86,-61,11,67,25,-10
1461662922118178,-7,-18,23,43,6,1,17,41
1461662922120159,0,6,16,15,-15,-47,-4,1
1461662922120159,-28,-32,17,4,-14,-41,-29,-33
1461662922132189,23,17,5,12,-3,-14,4,29
1461662922132189,14,12,15,-27,15,54,12,15
1461662922140194,-20,-14,-91,-68,-5,32,14,-11
1461662922140194,8,13,122,99,15,-26,-14,-11
1461662922155191,1,-4,-7,-12,-9,-7,0,-18
1461662922155191,2,8,-40,-14,3,21,15,4
1461662922162196,-15,-4,1,9,12,34,10,10
1461662922162196,-8,-9,-26,-29,-13,-45,-20,-39
1461662922178231,-8,-18,-8,-15,-17,-10,-9,68
1461662922178231,-4,4,-8,-2,-4,11,-6,-22
1461662922179231,20,5,-3,-17,-27,-59,-1,33
1461662922179231,2,1,-21,-21,-14,-6,1,-5
1461662922191240,17,6,21,9,26,24,13,5
1461662922191240,0,-21,-66,-18,-11,-44,-38,-21
1461662922200247,-13,12,7,10,16,42,18,-16
1461662922200247,8,20,0,-2,-1,-5,10,39
1461662922215231,-3,-6,27,12,1,-14,-16,-72
1461662922215231,-25,-14,-2,-27,-8,-2,-9,4
1461662922221234,5,44,28,16,15,26,4,-42
1461662922221234,-21,-67,-92,-14,-14,-3,0,-5
1461662922238263,-1,25,73,32,-7,-6,-2,6
1461662922238263,14,-16,-18,-5,-3,27,15,16
1461662922240236,-2,-32,-33,-28,-16,-25,-16,11
1461662922240236,15,11,12,4,4,6,3,15
1461662922252245,-7,-19,-32,-30,-6,7,2,-39
1461662922252245,-10,-11,8,9,-15,-18,-6,12
1461662922260279,-9,4,5,-1,-13,-59,-21,-38
1461662922260279,-5,3,-5,-14,-35,-39,2,9
1461662922275275,0,-10,-12,4,51,48,8,-9
1461662922275275,1,28,34,10,14,10,4,21
1461662922281264,4,-17,-36,-20,8,27,5,-2
1461662922281264,4,-5,-5,4,4,9,-6,-17
1461662922298297,2,1,-47,-28,-14,-25,-1,9
1461662922298297,-18,13,57,59,19,4,-7,-29
1461662922299319,4,18,17,1,-1,6,1,11
1461662922299319,-5,6,47,40,6,3,1,-20
1461662922311325,-5,3,-8,3,-15,-3,1,16
1461662922311325,10,-9,-7,-10,-1,-8,0,11
1461662922320303,-1,-24,-8,-5,-8,0,2,6
1461662922320303,4,12,11,-11,2,17,8,-2
1461662922334327,-8,-15,-15,-6,-6,0,4,-11
1461662922334327,-8,-2,-13,-10,-33,-54,-19,-5
1461662922343309,-13,0,6,3,-12,-7,-19,-58
1461662922343309,-17,-9,-17,-15,35,15,6,-7
1461662922358333,3,-1,8,15,21,26,-4,-1
1461662922358333,3,-6,-14,-11,2,-7,3,5
1461662922359334,4,-2,1,-12,-20,5,10,31
1461662922359334,5,-4,-17,-9,30,23,1,-11
1461662922371342,-4,-3,-7,16,-21,-5,-2,1
1461662922371342,4,13,10,3,5,-4,-1,6
1461662922380398,2,10,41,23,9,14,3,7
1461662922380398,1,-12,-58,-28,-12,5,-1,-1
1461662922394384,-10,-14,-40,-21,1,-16,-4,-12
1461662922394384,6,11,5,31,-4,4,2,15
1461662922403365,8,16,83,50,3,-8,3,11
1461662922403365,-1,-7,26,6,-10,-13,-3,-6
1461662922418376,-4,1,44,1,-11,-13,-3,-3
1461662922418376,2,-15,-40,-43,-9,-2,-1,1
1461662922419362,-1,-13,-29,-24,0,2,-2,0
1461662922419362,-1,5,18,7,-7,-2,-3,-4
1461662922440384,0,-11,-14,-5,-10,-5,-3,-5
1461662922440384,-4,-10,-7,-2,1,0,-1,6
1461662922442379,-3,-12,-25,-7,-12,-32,-4,0
1461662922442379,-3,0,-7,-3,-26,-1,-7,-5
1461662922454396,-10,4,-4,1,32,30,2,-5
1461662922454396,-4,-3,-2,5,3,37,20,1
1461662922463424,0,-4,-14,-6,31,3,-5,9
1461662922463424,5,5,-5,-7,-6,-17,8,-2
1461662922478406,-4,0,-4,-2,-11,-33,-14,-5
1461662922478406,6,19,20,9,13,12,3,-1
1461662922479407,0,6,-8,2,-3,4,2,-1
1461662922479407,0,8,17,2,-6,-5,-4,-9
1461662922491442,4,5,12,0,-5,1,5,-2
1461662922491442,-2,-13,-14,-10,-2,-5,-5,-4
1461662922500438,2,-5,-25,-9,-6,1,-1,1
1461662922500438,0,-1,14,3,0,-1,-1,1
1461662922514434,-2,-3,13,2,-6,-8,2,4
1461662922514434,-2,0,-6,-1,-2,-13,-5,-1
1461662922523439,3,-3,-7,-2,-1,7,5,5
1461662922523439,3,8,7,3,4,9,2,0
1461662922537447,-9,-14,-22,1,-5,-6,0,2
1461662922537447,3,9,11,4,7,1,-3,0
1461662922544451,-8,-4,-5,1,8,15,2,-5
1461662922544451,-5,-1,1,-3,-3,-5,-5,-3
1461662922551456,0,3,0,0,-6,-2,0,5
1461662922551456,3,5,-1,-4,-5,-6,-1,1
1461662922560462,-6,-19,-3,-2,11,13,1,-4
1461662922560462,1,-4,-15,-7,-9,-5,-3,-3
1461662922575472,1,-1,2,0,-2,-8,-1,0
1461662922575472,1,2,7,6,10,4,-1,2
1461662922589482,2,7,13,-5,-11,-8,-3,-2
1461662922589482,-8,-15,-32,-21,-1,0,-5,-5
1461662922597488,1,14,11,19,5,2,2,2
1461662922597488,4,6,15,14,5,1,0,2
1461662922604496,-1,2,10,1,-5,-3,-3,-4
1461662922604496,0,4,9,3,8,4,-2,-2
1461662922611513,-1,-1,-6,-14,-10,-8,-2,-1
1461662922611513,-8,-12,-19,-10,-13,-11,-4,-3
1461662922620539,-3,-7,-6,-3,-4,4,1,-2
1461662922620539,-1,-5,2,1,-7,-2,0,1
1461662922634567,-1,0,0,2,3,-6,0,-1
1461662922634567,-3,-2,3,-2,0,-4,-3,-3
1461662922641593,-1,-3,-12,-3,9,7,-1,-4
1461662922641593,0,3,3,2,-7,-2,-3,-1
1461662922657636,0,-6,-5,0,-7,-7,-2,1
1461662922657636,0,0,3,-1,2,0,0,1
1461662922664577,-1,-2,-4,-4,-5,-3,-3,0
1461662922664577,-2,1,0,-2,2,-3,-1,-2
1461662922681593,0,3,5,2,-3,-2,-3,0
1461662922681593,-2,-1,-5,-2,-2,-1,-1,-3
1461662922682586,2,0,-5,0,-1,-2,0,-1
1461662922682586,-2,3,6,-2,-2,0,1,-1
1461662922694622,-3,-3,1,-5,-1,1,0,-1
1461662922694622,1,2,-5,4,0,3,-1,0
1461662922701604,-3,-1,3,-4,-1,-4,-1,-1
1461662922701604,6,1,1,5,9,2,-1,2
1461662922717627,-3,-6,-1,-3,-2,0,-1,-2
1461662922717627,-2,-3,-3,-4,-3,-1,-1,0
1461662922724614,2,1,1,-1,0,3,1,1
1461662922724614,-1,-3,-4,-3,-4,-3,-1,0
1461662922740630,3,1,1,0,-2,-1,1,3
1461662922740630,-1,-6,-3,-3,2,2,-3,-1
1461662922742658,-2,-1,-9,-2,0,0,-1,-2
1461662922742658,0,2,6,3,-7,-5,0,0
1461662922754674,0,1,-4,-2,10,11,0,2
1461662922754674,-3,-3,-7,-6,-5,-4,-3,0
1461662922761679,-2,-2,4,-5,-6,-8,-4,0
1461662922761679,1,-1,-11,-1,5,0,-1,0
1461662922777690,-1,4,14,9,-2,-5,-2,-4
1461662922777690,1,-7,-9,-1,0,-1,2,0
1461662922784666,0,0,3,-3,1,-2,0,-2
1461662922784666,-3,-2,3,-2,-6,-5,-4,-5
1461662922800729,-4,-1,-1,-3,-4,-4,-2,-2
1461662922800729,3,-1,1,-5,2,3,-1,-2
1461662922802671,3,5,1,10,2,3,0,1
1461662922802671,-1,-2,2,-2,-3,-2,-1,-2
1461662922814679,1,-3,-4,-3,0,-7,-1,-2
1461662922814679,-2,-1,-4,-5,-5,1,-3,-4
1461662922821683,-2,-4,-10,-6,-11,-6,-4,-4
1461662922821683,-3,0,0,1,12,10,-1,0
1461662922837694,0,1,0,2,-4,-10,1,-1
1461662922837694,-3,-1,-2,2,0,-5,0,-1
1461662922844701,-1,-2,2,-3,1,-5,0,-2
1461662922844701,1,1,-1,0,-8,-2,-3,-1
1461662922860859,0,-2,2,3,4,8,-1,-1
1461662922860859,-3,-3,-2,-4,0,1,-2,-5
1461662922861806,-4,-2,-5,-1,-4,-1,-1,-3
1461662922861806,0,2,2,1,0,8,1,2
1461662922874838,4,-1,-4,-2,2,-1,1,2
1461662922874838,-1,5,1,2,-3,-3,0,-1
1461662922881816,0,-4,-17,-4,3,0,-2,-2
1461662922881816,-1,2,11,6,0,-3,-1,-1
1461662922897825,-3,-3,-4,-11,-12,-4,-2,0
1461662922897825,-5,0,9,4,3,-1,-5,-2
1461662922903891,-2,0,-2,1,0,4,0,1
1461662922903891,0,1,-3,3,1,-7,-1,3
1461662922920842,0,3,3,3,3,-2,-1,0
1461662922920842,2,-1,-1,-10,-10,-7,1,1
1461662922921842,-1,-1,-7,-5,0,4,0,-1
1461662922921842,-1,-2,-2,1,2,2,1,-1
1461662922933850,-4,-1,8,3,-2,1,0,0
1461662922933850,1,0,-3,1,-4,-1,-2,1
1461662922942873,0,0,4,1,3,-2,0,-1
1461662922942873,2,1,-3,-5,-5,-1,0,-1
1461662922957901,-3,-4,-8,-3,-5,-4,-3,0
1461662922957901,-3,-4,-4,-4,2,3,-2,-1
1461662922963940,-2,0,4,3,7,4,-2,-1
1461662922963940,-1,-2,-2,0,-3,-2,-1,-1
1461662922979890,1,0,-2,-1,4,5,0,-1
1461662922979890,1,0,4,-2,3,-2,0,-1
1461662922987919,-1,-2,-10,0,0,-5,0,2
1461662922987919,-3,-1,7,0,-2,-4,-1,-2
1461662922993922,0,1,6,3,-6,-3,-2,-1
1461662922993922,-6,-3,-13,-11,-5,-1,0,-5
1461662923002908,-1,-5,-26,-9,-1,0,-2,-1
1461662923002908,0,2,13,16,5,0,3,3
1461662923017927,-2,-2,5,0,3,1,-2,1
1461662923017927,-2,-1,1,1,-4,-3,-2,0
1461662923023931,0,1,9,-2,-5,-2,-2,0
1461662923023931,-2,-7,-14,-9,-2,-2,-2,3
1461662923040986,-1,1,-2,1,2,1,-1,0
1461662923040986,0,-1,1,0,0,-2,1,1
1461662923041928,-2,-3,-3,-1,-1,-7,0,0
1461662923041928,-2,-1,-1,-4,0,0,-1,0
1461662923054001,-2,-1,-1,-1,1,6,1,2
1461662923054001,1,0,0,1,-6,-3,0,2
1461662923071068,-1,-1,3,1,6,4,0,0
1461662923071068,-3,1,-3,0,-5,-4,1,-1
1461662923078051,1,1,-3,-1,-2,-4,-1,1
1461662923078051,1,2,6,3,-2,1,-1,2
1461662923084057,-4,-5,4,-1,-3,-2,-1,0
1461662923084057,0,-3,-7,-10,-1,0,-1,0
1461662923100087,-4,-6,-11,-5,-6,-2,-2,-3
1461662923100087,-1,4,1,4,0,-2,-2,1
1461662923102060,0,2,-8,1,5,1,0,-1
1461662923102060,3,1,11,7,5,2,1,-2
1461662923114068,2,0,5,1,-5,-4,-1,-2
1461662923114068,-2,-7,-3,-5,-1,0,0,-4
1461662923123077,-1,-3,-6,-8,-2,-2,-2,-4
1461662923123077,0,4,-5,-1,1,-2,-3,-6
1461662923137085,-6,-1,1,2,0,1,-2,-7
1461662923137085,1,-3,3,3,-5,-2,-1,-2
1461662923144128,-2,-1,5,0,-1,3,0,-4
1461662923144128,-1,-4,-9,-6,-3,1,-1,-3
1461662923160140,-1,-1,-2,-3,-2,-1,-1,-5
1461662923160140,0,1,-1,0,5,4,0,-3
1461662923162103,0,-1,2,-2,-8,-8,0,-4
1461662923162103,-1,0,-2,1,-2,-1,-3,-2
1461662923174152,2,0,1,-4,1,2,0,-2
1461662923174152,0,-1,-3,-1,2,1,0,-4
1461662923183118,2,1,8,1,-2,-2,-2,-3
1461662923183118,0,-2,-8,-1,-2,-5,-1,-2
1461662923197190,1,0,-5,-2,-4,-6,-1,0
1461662923197190,-2,-4,3,-2,0,-1,-1,1
1461662923204137,0,1,0,2,-1,-2,-2,0
1461662923204137,0,-2,-6,-2,-5,0,-1,2
1461662923220145,0,0,1,1,5,-2,0,4
1461662923220145,-2,2,-1,-3,-3,0,-1,1
1461662923222148,-3,-1,6,2,1,2,1,2
1461662923222148,-1,-1,-4,-4,-5,0,0,2
1461662923234172,-2,-5,-10,-7,1,1,-2,2
1461662923234172,-1,4,12,11,3,0,-2,-3
1461662923243159,0,-1,0,1,-3,-2,-2,0
1461662923243159,-2,0,1,0,1,-1,-1,-5
1461662923257181,2,-1,-3,-4,-4,-3,1,0
1461662923257181,-4,-3,-5,-6,-2,-3,-3,-4
1461662923266188,-2,-3,-1,0,-4,0,-1,-4
1461662923266188,3,1,1,-1,-2,-3,-2,-1
1461662923280225,0,2,2,3,4,1,-2,-3
1461662923280225,-3,-3,-5,-1,-1,0,0,-3
1461662923283189,-1,1,0,-1,-2,2,1,-1
1461662923283189,2,2,2,-1,-2,-2,1,0
1461662923294235,-2,-3,0,-3,-2,-2,1,-1
1461662923294235,1,0,-8,2,2,-1,-2,2
1461662923303216,1,-2,2,0,1,0,-2,4
1461662923303216,-4,-2,-2,-4,-1,-2,-3,-2
1461662923317264,-1,-3,-1,3,0,-1,1,3
1461662923317264,1,0,1,-1,0,-1,0,1
1461662923324269,0,1,-4,-3,-3,-2,-1,1
1461662923324269,-3,-4,-1,0,1,-1,-2,-1
1461662923340280,-4,-4,-7,-4,-3,-1,-1,0
1461662923340280,-1,0,2,0,1,0,-2,3
1461662923346406,4,3,6,3,-1,0,-3,0
1461662923346406,-1,-1,3,1,-1,1,-1,1
1461662923354410,-1,-3,-3,-5,-3,-4,-2,-1
1461662923354410,-3,-3,-1,-3,-4,-3,-2,-2
1461662923363359,1,-2,-2,-4,-3,0,-2,0
1461662923363359,-2,0,-4,0,-1,0,-2,-1
1461662923377449,-3,-6,-4,2,-1,1,0,0
1461662923377449,0,1,2,1,2,-1,0,2
1461662923384488,1,0,2,0,-1,-2,0,2
1461662923384488,-2,-1,1,-1,1,1,-1,1
1461662923400546,1,1,-1,-2,-4,-3,-2,-1
1461662923400546,1,0,-2,-2,-4,1,2,2
1461662923402521,-4,-2,-4,-3,-2,-3,0,-2
1461662923402521,1,-1,-2,-2,1,1,0,2
1461662923414509,1,1,2,0,-2,-1,-2,-3
1461662923414509,1,-4,-1,-1,-3,-2,-3,-1
1461662923423505,-2,0,-3,0,0,-1,0,-1
1461662923423505,-1,-3,-5,0,-1,1,-1,-2
1461662923437533,1,0,-1,2,-1,-1,-2,-1
1461662923437533,0,0,-3,-3,-3,-5,-2,-4
1461662923444538,1,2,1,2,2,2,1,-4
1461662923444538,-4,-2,0,-2,0,-2,-2,-5
1461662923459549,0,2,3,0,0,-2,-1,-5
1461662923459549,-1,-1,-3,-1,-1,-1,1,-3
1461662923466546,-1,-3,-4,-3,-2,-3,-2,-6
1461662923466546,-1,-2,1,0,0,-2,0,-4
1461662923474553,1,1,0,-3,0,0,-3,-8
1461662923474553,1,-1,1,-1,3,2,-1,-2
1461662923483560,-3,-4,1,0,0,0,-1,-2
1461662923483560,-2,1,0,0,-3,-3,-1,0
1461662923497556,-1,-1,-3,-4,-1,-2,-1,1
1461662923497556,2,-1,1,-2,-4,-2,0,0
1461662923511605,-1,1,-4,-2,0,-1,0,-1
1461662923511605,2,-1,0,3,1,-2,-2,1
1461662923519583,-1,-1,4,4,3,1,1,2
1461662923519583,-2,0,-1,-2,-2,-1,-1,-1
1461662923526606,0,-2,0,-2,-3,-1,-1,0
1461662923526606,-2,-1,0,3,0,-1,0,0
1461662923534612,0,-1,2,-1,-1,0,0,0
1461662923534612,-1,-1,-13,-6,-2,-3,-2,-3
1461662923543590,1,1,-2,1,1,0,2,0
1461662923543590,-3,-2,-1,-4,-1,0,-1,-2
1461662923557618,-1,-1,0,0,-2,0,-1,-3
1461662923557618,0,-5,-1,-1,0,-3,-1,-3
1461662923564608,-2,-1,-1,-4,-1,-3,-2,-2
1461662923564608,-2,-4,-1,-2,0,-1,0,-2
1461662923579633,0,-1,0,-2,-1,-1,0,1
1461662923579633,-5,-4,0,-1,0,0,-1,-3
1461662923586631,-1,1,0,0,-2,0,-3,-1
1461662923586631,2,-2,1,-3,-2,1,1,-2
1461662923594636,-2,0,-2,-2,-1,-2,0,-3
1461662923594636,-3,-2,0,0,0,-1,1,-1
1461662923603643,0,-1,-2,-4,-2,-1,-2,-1
1461662923603643,-3,0,1,1,0,-2,-1,0
1461662923617640,-2,0,-3,0,-2,-1,-2,0
1461662923617640,-1,-2,-1,-3,-1,1,0,1
1461662923624661,0,-1,1,0,-2,-1,-3,-4
1461662923624661,-1,-3,-4,-4,-2,-3,0,-1
1461662923639676,-1,0,0,-1,0,-3,-1,0
1461662923639676,0,-1,-3,0,0,-2,0,0
1461662923646701,0,2,4,2,0,-1,-1,1
1461662923646701,0,1,0,0,0,-1,0,-1
1461662923662712,-3,-5,-9,-3,-2,-1,-1,-1
1461662923662712,0,6,11,-2,-2,-1,1,1
1461662923664674,0,-2,-5,0,-1,0,-1,0
1461662923664674,-1,1,-1,0,-1,-1,-1,1
1461662923677723,-3,0,3,2,1,-2,-1,1
1461662923677723,0,-3,-4,1,0,-1,-1,0
1461662923684707,-2,-4,-2,-3,-1,-2,2,-1
1461662923684707,2,4,-1,-1,-2,-1,-1,1
1461662923707705,-1,-4,-4,-4,-2,0,0,-1
1461662923707705,3,-1,0,-2,-1,-1,-1,4
1461662923709706,-2,-4,-1,-1,1,-1,0,2
1461662923709706,1,0,-5,-1,-1,0,-1,0
1461662923722716,0,0,0,0,-2,1,1,2
1461662923722716,-3,-1,-1,0,-1,0,0,-1
1461662923724717,-1,0,-2,-2,-1,0,1,2
1461662923724717,1,0,0,-1,-1,-2,-2,1
1461662923737729,0,0,-2,-2,-1,-2,-1,-1
1461662923737729,-2,-1,1,1,0,-2,-2,-2
1461662923744749,-2,-3,-5,-1,-3,-3,-2,0
1461662923744749,1,-3,-3,-2,-1,0,-1,0
1461662923759805,0,0,0,4,0,-3,-1,0
1461662923759805,2,-1,-4,-3,-1,0,-1,1
1461662923766758,-1,-3,-8,0,-1,1,-3,-2
1461662923766758,-1,-2,7,0,-2,1,0,-1
1461662923782771,0,-1,0,0,1,1,-1,-1
1461662923782771,-2,-1,3,1,-1,-1,-2,-2
1461662923788801,-2,-1,-3,-2,-3,-3,-1,-4
1461662923788801,0,-1,-6,-4,-2,-3,-2,0
1461662923797770,-3,-1,0,0,0,-1,-2,-2
1461662923797770,-1,-3,-2,1,-1,-1,0,-1
1461662923803812,0,1,4,-1,-1,-2,0,-1
1461662923803812,-1,-1,-5,-1,0,0,-1,-1
1461662923819796,-1,-4,-1,-4,-2,-1,0,1
1461662923819796,2,2,-6,-1,1,-1,-2,-1
1461662923826829,2,3,3,1,2,-1,0,0
1461662923826829,-4,-1,-2,-2,-1,-1,-2,-3
1461662923842859,1,0,3,-1,-1,-1,-2,1
1461662923842859,-3,-1,-1,1,-2,0,0,0
1461662923844814,-1,-2,-2,-2,-2,-2,-1,2
1461662923844814,1,-2,1,0,-1,0,1,3
1461662923857901,0,0,-3,0,0,-1,-1,0
1461662923857901,1,-2,-1,-2,0,-1,-1,1
1461662923863964,-1,-1,-2,-4,-1,-2,1,-2
1461662923863964,-3,0,1,2,0,-1,-1,-3
1461662923879975,-2,4,1,1,0,-1,-2,-1
1461662923879975,1,0,-2,-1,0,-1,0,-3
1461662923886941,-2,-1,1,0,1,0,-2,0
1461662923886941,2,-2,-3,-3,-5,0,0,0
1461662923903992,-3,-3,-3,-3,-2,-4,-1,-4
1461662923903992,-1,0,1,0,-2,-2,-1,-3
1461662923904943,0,-3,-2,-1,-4,0,-1,-2
1461662923904943,-2,-1,3,0,-3,-2,0,-2
1461662923917965,4,1,-2,-3,-2,1,-1,1
1461662923917965,-2,-2,-7,-3,0,-1,-2,-3
1461662923923977,-4,-5,-10,-3,0,0,-2,-4
1461662923923977,-2,-1,5,1,1,-1,-2,-2
1461662923939988,0,-1,1,3,0,0,0,-2
1461662923939988,0,2,2,0,-2,0,-1,-2
1461662923946980,-1,1,1,1,-2,-1,2,-2
1461662923946980,1,-3,-2,-2,0,-1,0,-1
1461662923962991,-2,-2,-1,-2,-2,1,-1,-3
1461662923962991,-2,-2,-2,-2,0,-1,-3,0
1461662923964993,0,0,-1,-4,-2,-2,0,1
1461662923964993,-4,2,-7,-1,0,-2,-3,-2
1461662923977024,-3,-4,1,0,-1,0,-1,-1
1461662923977024,-1,-3,0,1,0,1,-1,-1
1461662923986006,-2,-4,-1,-2,-2,0,-3,-1
1461662923986006,1,0,-2,-3,-2,-2,-1,1
1461662924000041,0,3,-2,-3,-1,-1,-2,0
1461662924000041,0,-1,0,0,1,-1,-2,1
1461662924007008,-1,-1,1,1,1,0,-2,-1
1461662924007008,-1,-1,2,1,-2,-1,0,-1
1461662924023017,2,0,-5,-4,-1,-1,0,0
1461662924023017,-3,-3,-1,-2,-2,-2,-2,-2
1461662924025077,-1,0,-1,-2,-2,-1,-1,-2
1461662924025077,-2,-1,-1,0,1,1,-3,-2
1461662924037027,-2,0,2,-2,0,-1,-2,-3
1461662924037027,1,2,-3,-2,-4,-2,0,-1
1461662924044034,-2,1,2,1,2,-1,-1,-10
1461662924044034,0,-2,-2,-2,-2,-1,0,-2
1461662924060046,-1,-2,-1,-2,-1,-1,-2,-3
1461662924060046,-1,-3,-4,-1,-1,0,0,-3
1461662924067077,-3,4,7,2,-3,-1,-3,-1
1461662924067077,-1,-1,0,0,-1,0,-2,-2
1461662924083062,-3,-3,-1,-1,-3,-1,-2,-3
1461662924083062,2,-2,-4,-3,-2,-1,-1,0
1461662924085064,-2,-5,-5,-1,1,-1,0,1
1461662924085064,-1,0,-3,-2,1,-1,-1,0
1461662924098071,-2,0,-1,0,0,-1,-1,-1
1461662924098071,-3,0,4,1,0,-1,1,-1
1461662924104075,1,1,-2,-3,-2,-2,-2,2
1461662924104075,-2,-2,0,-1,-3,-1,-1,-2
1461662924120087,-1,-2,-2,-2,1,-2,-2,-1
1461662924120087,0,1,1,0,-1,-2,-2,0
1461662924127091,1,0,0,1,1,0,-1,1
1461662924127091,-1,-1,-2,0,-1,-2,0,1
1461662924143103,-4,-3,-2,-2,-2,0,-3,0
1461662924143103,-5,-2,-2,-1,-2,0,0,-2
1461662924145105,-4,-2,4,1,1,0,-1,-3
1461662924145105,1,-1,1,0,-1,0,0,2
1461662924157113,2,1,-2,1,1,0,1,-1
1461662924157113,-1,-1,0,-1,0,-2,-1,-2
1461662924166118,3,-2,-10,-4,-4,-2,-1,1
1461662924166118,-4,-1,6,2,0,-2,0,-2
1461662924180222,0,0,4,2,0,-2,-1,-1
1461662924180222,0,-1,-1,-1,0,-1,0,0
1461662924187184,-2,-1,-3,-2,0,-1,-1,1
1461662924187184,-1,-3,-12,-6,-2,-1,-3,-1
1461662924203236,1,-2,2,1,-1,1,-2,1
1461662924203236,-1,1,-3,-1,-1,0,0,-1
1461662924211298,1,-1,6,1,-1,1,-1,1
1461662924211298,-1,1,-2,-2,-1,-1,0,-2
1461662924217274,1,3,-6,-3,-2,-2,-1,-2
1461662924217274,1,0,-5,-1,-1,-2,-2,1
1461662924226281,-3,-2,2,-1,-2,-2,1,0
1461662924226281,1,-1,-8,1,0,0,0,1
1461662924240318,-1,-3,-2,-1,-1,0,0,-1
1461662924240318,-2,-2,0,-2,-2,-2,-2,-3
1461662924246293,2,-1,-2,-2,0,-1,-2,2
1461662924246293,2,1,4,0,0,-2,-1,0
1461662924263324,-1,-2,-5,-2,-2,-2,-1,-2
1461662924263324,-3,-4,-4,-2,-2,-2,-2,0
1461662924265307,-2,-4,-12,-2,1,-1,-1,-2
1461662924265307,-1,-2,4,-4,-2,0,-1,-1
1461662924276313,0,3,9,3,0,-2,1,1
1461662924276313,-2,1,3,1,0,1,0,-2
1461662924285359,-2,1,0,-1,-2,-2,-1,-3
1461662924285359,-4,-1,-4,-1,-2,-1,-1,0
1461662924300367,0,-5,-1,-3,0,-1,0,-2
1461662924300367,2,-2,0,-1,1,-1,-1,-2
1461662924306374,1,1,5,2,0,1,0,0
1461662924306374,-1,-1,-2,-1,-1,-1,-1,-2
1461662924323387,-1,1,0,-1,-2,-1,-1,1
1461662924323387,-2,1,-5,-1,-1,-1,-3,-1
1461662924324353,-1,-3,-2,-3,-2,0,-2,-2
1461662924324353,-3,-3,1,-3,-2,0,-2,-1
1461662924345392,-2,-2,-5,-2,-3,-1,-1,0
1461662924345392,2,3,2,0,-3,0,1,0
1461662924347393,0,0,1,-1,-2,0,0,-2
1461662924347393,-2,-2,-5,-1,0,0,-1,-1
1461662924360405,0,-3,-3,0,2,-1,1,1
1461662924360405,-2,4,4,0,1,-2,-1,-3
1461662924366393,-2,-1,-2,-2,-2,-1,-1,-1
1461662924366393,-1,-2,5,1,0,1,-3,-5
1461662924382389,-1,1,-6,-2,-1,-1,-1,-1
1461662924382389,-2,-6,-5,-2,0,1,-1,0
1461662924389454,2,-1,-1,-3,-1,1,-3,-1
1461662924389454,1,2,-6,-3,2,0,0,0
1461662924396458,-2,-2,8,2,1,-1,0,-2
1461662924396458,-7,-4,-3,-3,-2,-1,0,-2
1461662924405465,-2,-1,4,3,0,-2,0,0
1461662924405465,5,2,5,3,-1,-2,1,2
1461662924420415,-4,-3,-5,-2,-3,-1,-1,-3
1461662924420415,0,2,-3,-2,-4,-3,-3,0
1461662924426422,-3,-2,-5,-5,0,-2,-1,-3
1461662924426422,-2,0,-1,-1,-1,-2,-3,-1
1461662924442431,-2,-1,0,-1,0,-1,-1,-1
1461662924442431,3,-2,1,0,0,-1,-1,-1
1461662924449437,-1,-2,-3,-1,0,-3,-1,-2
1461662924449437,0,-2,0,0,-2,-2,-3,-2
1461662924456441,0,-1,-2,-4,0,0,-1,-1
1461662924456441,0,1,-2,-3,-2,0,0,1
1461662924465449,-1,-1,5,5,1,-1,-2,-1
1461662924465449,-6,2,4,0,-2,-1,0,-3
1461662924480459,3,1,-1,-2,-2,-1,-2,0
1461662924480459,-3,-3,0,0,0,1,-3,1
1461662924486463,-1,0,-4,-2,-1,-2,0,2
1461662924486463,0,-3,-2,-1,-2,-1,-1,-1
1461662924518485,0,0,1,1,-2,-2,0,-1
1461662924518485,2,0,-4,-2,-1,-2,-2,-1
1461662924520486,-1,-1,-7,-6,-2,-1,-1,-3
1461662924520486,-2,-3,-2,0,1,1,0,1
1461662924521487,-2,1,4,0,-1,-3,0,0
1461662924521487,2,-2,-1,0,0,-1,0,2
1461662924542514,-5,-1,-3,-2,-1,0,0,-2
1461662924542514,-1,-2,3,-1,0,-1,0,-1
1461662924542514,0,-2,-6,-2,-2,-1,0,-2
1461662924542514,-1,-2,0,-3,-4,-1,0,0
1461662924546517,1,2,-2,-3,-2,0,-1,2
1461662924546517,0,0,-4,-3,1,0,-2,0
1461662924562528,-1,-4,-7,-3,-2,0,-3,0
1461662924562528,-3,-3,7,-1,-1,-1,-1,-2
