timestamp,emg1,emg2,emg3,emg4,emg5,emg6,emg7,emg8
1461661600571854,-3,9,5,-3,0,-3,-1,-2
1461661600571854,0,4,-10,0,0,1,-2,0
1461661600578859,-3,-9,-4,0,0,-2,-1,-1
1461661600578859,-1,0,3,-1,-2,1,-2,0
1461661600593869,0,2,4,0,-1,-2,-1,-2
1461661600593869,1,5,12,-1,-3,-2,-2,-2
1461661600602875,-1,-6,-6,0,-1,1,0,0
1461661600602875,0,-1,-25,-3,-2,-1,5,14
1461661600617707,0,-5,9,1,0,-3,-1,6
1461661600617707,-2,1,7,-1,0,-3,-5,-14
1461661600618708,-1,-2,-12,-2,-2,-1,-1,-3
1461661600618708,-4,-6,1,-4,-4,-3,-3,-8
1461661600632217,0,2,0,0,-1,1,3,7
1461661600632217,0,4,14,1,-1,0,1,6
1461661600639723,1,5,4,-1,-2,0,-3,-7
1461661600639723,-1,4,-3,-2,2,0,7,12
1461661600654733,-8,-32,-18,-3,-2,0,-5,-8
1461661600654733,-1,-3,16,2,-1,1,-2,-12
1461661600662739,1,4,-2,-1,-2,-2,-2,9
1461661600662739,1,-4,6,1,-1,-1,-3,-5
1461661600677750,0,-3,-2,-2,0,-1,-1,0
1461661600677750,0,-10,-20,1,-1,-1,0,2
1461661600678763,-2,3,14,1,0,0,1,1
1461661600678763,-4,-15,0,-1,-2,-2,-3,-5
1461661600692261,3,22,-15,-2,1,-1,-2,-4
1461661600692261,-6,-24,-43,-7,-2,-1,0,2
1461661600699766,-1,7,42,3,-2,-3,-2,-3
1461661600699766,2,12,20,6,1,-3,-2,-2
1461661600714777,3,5,14,2,-1,0,-1,-4
1461661600714777,-2,1,-23,-3,1,0,13,33
1461661600722783,-6,-19,-32,-7,-2,-2,-14,-42
1461661600722783,5,23,20,1,-1,-1,-4,-10
1461661600737805,-1,-17,-22,-3,-1,-2,0,-3
1461661600737805,1,-10,-26,-4,-2,-2,3,11
1461661600738808,-2,8,42,1,-3,-1,2,2
1461661600738808,-6,-7,-31,-3,-2,0,-7,-27
1461661600752303,4,7,8,-2,0,0,-1,12
1461661600752303,1,-3,-5,1,-1,0,-1,2
1461661600759822,-3,3,-1,-1,-1,-1,3,12
1461661600759822,-1,-4,3,1,0,-1,-1,0
1461661600774822,-5,-16,-1,-2,-3,-2,-2,-4
1461661600774822,-2,0,-14,-3,-1,-1,-2,-14
1461661600782339,6,13,12,1,1,-1,-1,4
1461661600782339,1,6,8,-2,-1,-1,-2,1
1461661600797895,-4,-12,-7,3,-1,-1,6,17
1461661600797895,2,9,16,1,0,-1,-5,-7
1461661600798336,0,-5,-6,0,1,-1,1,-8
1461661600798336,-2,-2,10,-2,-1,1,13,24
1461661600812367,6,15,9,1,-2,-2,-16,-26
1461661600812367,-5,-6,9,2,-1,-2,0,0
1461661600819872,-3,2,-9,-6,-2,0,5,7
1461661600819872,-3,-12,-26,0,-1,-3,-12,-8
1461661600834083,0,6,4,-2,0,-1,5,12
1461661600834083,1,10,13,4,-2,-1,-5,-7
1461661600851090,2,-9,2,0,-2,-1,1,9
1461661600851090,-4,-7,-22,-3,-1,-2,0,-2
1461661600859117,-4,8,-2,1,-1,-2,-1,-8
1461661600859117,-2,-6,-12,-6,-1,-2,-3,-4
1461661600865121,-2,-1,-5,1,0,0,0,-1
1461661600865121,-1,-11,12,-1,-1,1,8,23
1461661600872126,-10,-5,-15,-2,-3,-4,-16,-51
1461661600872126,5,17,12,-3,-3,1,10,25
1461661600879131,4,0,-2,3,-1,-1,-13,-11
1461661600879131,1,0,15,0,-1,-1,-4,-7
1461661600894130,-3,-10,-35,-5,-3,0,4,9
1461661600894130,-3,7,30,4,0,2,14,38
1461661600902136,-2,-11,-25,-4,-2,-2,-21,-39
1461661600902136,4,3,4,-2,-1,-1,0,6
1461661600917129,-1,1,11,-1,0,-1,0,-2
1461661600917129,0,-6,-5,-1,1,-1,-5,-11
1461661600918130,-2,5,-16,1,0,0,10,14
1461661600918130,2,-6,-10,-2,-1,0,0,7
1461661600932151,0,-7,9,-1,0,-2,-7,-27
1461661600932151,0,12,-37,3,-1,0,-3,-15
1461661600939146,-1,-5,21,-2,-2,1,1,-1
1461661600939146,-4,-5,14,2,-2,-1,1,-7
1461661600954167,2,8,2,0,-1,0,5,20
1461661600954167,3,2,19,2,0,0,-4,-8
1461661600962172,0,-6,-20,-3,1,0,6,0
1461661600962172,-7,-5,-27,-4,-1,-3,-6,-19
1461661600977183,3,-3,5,-1,-2,-3,0,20
1461661600977183,8,14,-4,1,1,1,4,16
1461661600978171,-2,-28,-13,-4,-2,-3,-3,7
1461661600978171,-3,-13,6,-2,-4,-2,-1,-5
1461661600992220,-6,-13,-3,-3,0,1,-1,-7
1461661600992220,-4,-3,0,-5,-1,-3,-6,-9
1461661600999200,1,9,1,-1,-3,-2,2,9
1461661600999200,-1,11,3,-2,0,1,20,50
1461661601014236,-9,-14,1,0,-3,-2,-19,-78
1461661601014236,3,-11,8,-1,-1,-1,-2,2
1461661601022242,-1,-4,6,1,1,0,-1,2
1461661601022242,2,5,-15,-1,0,-1,-3,1
1461661601037236,-7,3,16,-1,-1,0,6,24
1461661601037236,-3,-8,3,0,-1,0,-5,-13
1461661601038220,-1,6,5,-1,0,-1,-6,-22
1461661601038220,0,9,4,3,-1,-1,7,25
1461661601052247,5,0,7,2,1,2,12,35
1461661601052247,0,-3,6,-4,-4,-3,-14,-24
1461661601059251,-2,2,-15,0,0,2,18,37
1461661601059251,-2,-13,-6,-2,-3,-4,-31,-70
1461661601074297,7,5,-1,0,0,2,11,19
1461661601074297,-11,-1,-2,-2,-2,-2,-10,-32
1461661601082284,3,-7,-7,-3,-1,0,-2,10
1461661601082284,-6,25,11,-1,-1,-3,-2,-3
1461661601097292,6,7,0,-4,-2,-3,-6,-4
1461661601097292,3,-7,9,2,0,1,13,29
1461661601105274,-7,-11,-25,-6,-1,1,0,-6
1461661601105274,-6,-14,-5,-3,1,0,3,13
1461661601112291,3,19,44,13,1,-3,-12,-19
1461661601112291,1,8,-6,-4,-2,-4,1,1
1461661601119312,1,1,-10,-5,-2,-2,-3,3
1461661601119312,8,-1,-10,2,0,2,2,3
1461661601134370,4,7,-1,0,-2,1,9,21
1461661601134370,-4,-10,-2,-2,-1,0,-6,-19
1461661601142376,0,-8,-15,-1,-1,-2,-9,-7
1461661601142376,-1,5,6,-4,-2,-1,6,2
1461661601159389,-8,-9,-35,-5,-4,-3,-5,-6
1461661601159389,-6,-10,22,0,-2,-3,-3,-9
1461661601165402,5,10,10,4,0,0,4,16
1461661601165402,-6,-1,-24,-6,-4,-4,-7,-12
1461661601172396,-14,-32,12,-1,-1,-1,11,34
1461661601172396,-3,5,-10,3,-1,-2,-14,-56
1461661601179457,-3,-15,-5,0,0,-1,3,15
1461661601179457,2,4,12,2,-1,-3,-2,-15
1461661601194462,-1,-1,-27,-9,-1,0,-3,-10
1461661601194462,-4,-3,-12,-1,0,1,7,24
1461661601201422,-8,3,17,-4,-5,-3,-3,-10
1461661601201422,4,2,4,4,0,-1,-5,-9
1461661601216422,-4,-1,-7,-3,0,1,3,1
1461661601216422,1,-2,-9,-3,-1,1,4,10
1461661601225484,3,14,5,2,0,2,0,4
1461661601225484,-3,-11,-3,2,0,-2,-6,-16
1461661601231489,-1,6,6,2,-1,-1,-3,-6
1461661601231489,1,7,20,-2,-3,-2,-3,1
1461661601239447,-7,-14,-26,-5,-2,-2,0,-13
1461661601239447,-2,-13,-1,-3,-2,0,1,13
1461661601254457,0,0,-9,2,0,0,-2,0
1461661601254457,2,2,-8,0,-1,-3,-1,6
1461661601261480,-3,17,24,1,0,1,0,-10
1461661601261480,-6,-16,-5,1,-4,1,11,21
1461661601278464,4,13,1,-4,0,0,-11,-2
1461661601278464,0,-16,-15,-2,-1,-1,-1,-7
1461661601292531,5,3,-8,-1,-1,-1,-4,-6
1461661601292531,1,7,-1,-3,1,0,0,-4
1461661601300492,0,-1,16,-1,0,-2,6,15
1461661601300492,1,8,-1,-2,-1,-2,1,9
1461661601300492,-1,-9,6,6,5,0,-4,-1
1461661601300492,3,6,-2,-2,-1,0,-4,-7
1461661601314636,-4,-3,-10,-5,-2,-2,-1,-5
1461661601314636,-1,-6,2,1,0,-1,-2,3
1461661601321641,3,2,1,-1,-1,-1,1,-3
1461661601321641,-1,3,5,-4,-4,-1,0,0
1461661601336606,1,-2,-14,0,-1,0,-3,-8
1461661601336606,0,-4,-7,0,3,-1,0,4
1461661601345620,0,6,8,0,-1,0,1,4
1461661601345620,-3,0,5,-3,-1,-2,-4,-6
1461661601359669,1,1,-7,1,1,-1,-2,-2
1461661601359669,-2,-8,-1,-1,-1,-1,0,1
1461661601360626,-3,-6,9,1,-1,0,-2,-3
1461661601360626,0,-5,-3,-5,-2,-3,-4,-4
1461661601374680,-2,0,0,-3,-3,-2,-1,-4
1461661601374680,1,5,-1,2,3,0,0,5
1461661601381684,-1,2,-1,-7,-5,-3,-2,-4
1461661601381684,-3,-8,-6,1,0,1,3,-2
1461661601396649,1,5,-2,-2,-5,-3,-3,3
1461661601396649,-1,1,14,0,-1,-2,4,13
1461661601404643,-2,-9,-5,0,-2,-1,-4,-7
1461661601404643,1,3,-10,1,0,-1,-3,-4
1461661601419683,-4,0,6,0,2,1,2,-1
1461661601419683,1,5,11,-1,-1,1,-4,-9
1461661601420672,-2,-7,-7,2,-2,0,11,30
1461661601420672,-3,7,-3,-2,-1,-3,-12,-33
1461661601434669,-3,-14,-4,-2,0,-1,-1,-7
1461661601434669,-1,-3,-15,-1,0,2,2,4
1461661601441673,-3,10,23,-1,1,-1,-2,-6
1461661601441673,0,4,9,1,-3,-2,3,6
1461661601456700,2,9,3,5,1,1,0,0
1461661601456700,-4,1,-10,-2,-4,-1,-6,-10
1461661601464706,-3,0,-11,-3,0,1,2,-3
1461661601464706,0,0,-2,-2,-4,-3,1,3
1461661601479761,-2,1,28,-1,-2,-1,-4,-5
1461661601479761,-3,0,6,6,5,3,1,1
1461661601480698,3,3,-31,-4,-4,-3,-6,-7
1461661601480698,-5,-12,12,-4,-4,-2,1,6
1461661601494735,-1,-1,-9,0,-1,-1,1,1
1461661601494735,-1,3,-7,-2,-1,1,0,-4
1461661601501740,1,9,24,7,1,-1,-4,-5
1461661601501740,-6,-15,-32,-12,-1,0,2,9
1461661601518739,-6,-7,-9,-5,-4,-4,-6,-34
1461661601518739,-1,-9,-5,0,-3,-4,-1,17
1461661601524744,-3,11,2,1,-2,-1,-2,-5
1461661601524744,3,7,7,2,0,0,2,12
1461661601539754,-1,-15,-24,0,1,1,3,5
1461661601539754,-1,4,10,-2,-3,-2,-5,-16
1461661601540738,0,-6,6,1,-1,0,-1,0
1461661601540738,-3,-2,10,3,4,1,-2,-6
1461661601554788,-2,-4,-2,-3,0,-2,2,7
1461661601554788,0,0,-12,-5,-4,-1,-2,-3
1461661601561792,-2,-5,-3,-7,-2,-1,1,2
1461661601561792,2,15,19,4,0,0,-5,-6
1461661601585769,3,-6,-11,3,3,0,-2,4
1461661601585769,-4,-12,-23,-8,-3,-2,3,6
1461661601586770,2,10,33,11,2,0,-4,-11
1461661601586770,1,-4,-9,1,-2,-2,0,0
1461661601599779,3,12,16,0,-4,-2,-2,6
1461661601599779,2,5,1,-8,-5,-2,0,-2
1461661601600780,-1,-19,-24,-4,0,0,0,1
1461661601600780,1,1,7,3,6,2,-3,-2
1461661601614791,0,-2,3,2,1,1,0,4
1461661601614791,0,1,0,2,-1,-1,3,13
1461661601621796,-2,1,-2,-1,-1,-2,-8,-29
1461661601621796,-4,-5,9,0,-3,0,2,4
1461661601636807,-2,0,-14,-7,-2,-2,0,3
1461661601636807,-4,4,30,4,-1,-1,-1,-6
1461661601644812,5,-1,4,-4,-1,-3,2,18
1461661601644812,1,-13,-25,-6,-2,-1,0,-5
1461661601659861,-2,-7,-13,-4,-1,-2,0,3
1461661601659861,0,2,13,-1,-1,-2,-3,-7
1461661601660823,2,2,19,3,0,-1,1,2
1461661601660823,1,4,-21,1,1,1,0,-2
1461661601674833,0,9,21,0,-1,-1,-1,0
1461661601674833,-4,-20,-23,-5,-1,-1,-3,-3
1461661601681877,1,0,-16,-5,-2,0,1,-1
1461661601681877,3,2,16,-2,-3,-2,-1,3
1461661601696891,-3,-3,-12,0,0,0,-2,-3
1461661601696891,0,9,1,-5,-3,0,-1,-5
1461661601704867,-2,-4,-7,1,-1,-3,-1,1
1461661601704867,-1,2,1,-1,0,-2,-1,-4
1461661601719922,2,0,6,-1,-1,0,-2,-3
1461661601719922,2,3,-3,2,-1,-1,0,-2
1461661601720877,-2,-7,-7,-4,-3,-1,-1,1
1461661601720877,0,0,4,2,2,1,-2,-2
1461661601742939,-4,4,1,-3,-3,-3,-2,-2
1461661601742939,-2,2,2,7,6,1,1,2
1461661601743897,-2,-5,-7,3,0,-2,-1,1
1461661601743897,2,1,6,2,-1,-3,3,17
1461661601757039,-1,-4,6,-3,-2,-2,-14,-36
1461661601757039,1,2,-8,1,-1,0,2,0
1461661601773045,0,-7,18,0,0,-2,-7,-6
1461661601773045,-5,0,-25,-5,-4,-3,-2,-3
1461661601779999,0,3,-5,-1,-1,1,4,12
1461661601779999,-2,-19,-21,-3,-4,-1,0,1
1461661601780998,-2,7,-13,-4,1,1,1,-3
1461661601780998,2,6,6,-1,-3,-4,-3,1
1461661601794036,-2,-3,26,3,3,0,3,4
1461661601794036,-5,-6,-17,-2,0,-1,-5,-15
1461661601802025,0,0,-11,0,1,1,4,19
1461661601802025,-2,-1,12,-1,-1,0,-1,-5
1461661601817028,0,2,-12,2,1,1,0,4
1461661601817028,0,-2,26,-5,-2,-2,-2,-3
1461661601825094,-2,0,-8,3,1,-1,-2,-6
1461661601825094,-1,1,7,0,-2,-3,-2,-3
1461661601848064,-2,-8,-11,-3,-1,0,1,2
1461661601848064,0,3,16,2,-1,-1,-2,3
1461661601849045,0,5,-8,-5,-4,0,0,-3
1461661601849045,-6,-12,2,0,1,0,-1,-5
1461661601854051,0,0,-21,-2,-2,-1,0,0
1461661601854051,2,3,0,1,0,-1,-2,2
1461661601862075,-1,11,-1,1,-1,-1,2,1
1461661601862075,-2,1,3,-2,0,-2,2,3
1461661601886075,-4,-2,-1,3,0,-2,-3,-9
1461661601886075,0,12,5,-3,-2,-3,0,2
1461661601886075,-3,-18,-8,-1,0,0,-3,-6
1461661601886075,-2,3,26,2,1,0,0,4
1461661601900085,-1,-3,8,-2,0,0,0,1
1461661601900085,-1,-1,-37,-5,-1,-2,-1,0
1461661601901083,-1,5,22,2,-1,-1,2,6
1461661601901083,-5,-25,-34,-6,-1,-1,-3,-7
1461661601914092,1,8,12,-1,0,-1,-2,2
1461661601914092,0,-8,6,3,1,-1,-1,-3
1461661601922097,2,12,3,-3,0,-1,2,-2
1461661601922097,2,0,2,0,0,-1,-1,-5
1461661601937108,-2,-1,6,-3,-3,-2,-2,-3
1461661601937108,-2,-3,-1,4,0,0,1,5
1461661601945113,-4,-3,-6,-3,0,0,0,-6
1461661601945113,-1,4,-6,-5,-3,-1,-4,-5
1461661601960137,-1,-10,1,4,1,0,3,9
1461661601960137,2,9,27,0,-3,-2,-1,-3
1461661601961137,0,0,-11,0,1,-2,-1,0
1461661601961137,0,11,16,-3,-1,1,-1,-9
1461661601974173,-4,-14,-11,0,0,-1,-1,-1
1461661601974173,-4,-19,-21,-4,-1,1,0,1
1461661601982180,0,3,9,-3,-4,-2,-1,-3
1461661601982180,-1,-11,-2,0,-1,-1,-1,1
1461661601997189,3,7,0,-5,-2,0,-2,0
1461661601997189,-1,6,15,0,-2,-2,-1,-2
1461661602005173,2,1,-13,-6,-3,-3,-2,0
1461661602005173,-1,-17,-14,2,1,1,6,17
1461661602019224,-4,-4,10,-1,-4,-4,-11,-29
1461661602019224,-3,-4,-5,1,0,-1,-8,-13
1461661602027236,-1,-6,3,-2,-2,-1,-2,-7
1461661602027236,4,21,6,0,0,-1,-2,1
1461661602034181,0,-9,-19,-1,0,0,4,13
1461661602034181,0,3,18,1,0,0,2,4
1461661602042182,-3,5,1,0,-1,0,-1,-3
1461661602042182,-1,7,-2,1,0,-1,1,-3
1461661602065228,-5,3,-11,-5,-2,-1,0,-6
1461661602065228,1,-7,-22,-4,0,-1,-1,10
1461661602066201,-2,-20,6,-1,-4,0,0,4
1461661602066201,-1,-3,-11,-2,-1,-1,0,-4
1461661602079271,0,9,7,-1,-1,0,0,2
1461661602079271,-1,-11,-4,3,1,1,-1,-2
1461661602087218,3,8,1,1,0,0,-1,0
1461661602087218,-7,-27,-26,-5,-2,-3,-2,-6
1461661602094223,0,5,23,2,-1,0,0,0
1461661602094223,0,4,-4,-4,-4,-3,1,-1
1461661602102244,-3,-2,-8,1,2,0,-1,0
1461661602102244,3,15,14,1,0,0,-1,-5
1461661602117235,1,-6,-12,1,2,2,2,7
1461661602117235,2,12,8,-3,-2,0,1,1
1461661602132264,-6,-23,-27,-6,-6,-4,-2,-3
1461661602132264,-3,-9,15,-1,-1,0,-2,-3
1461661602139269,0,2,8,2,0,0,4,17
1461661602139269,-1,14,0,0,0,1,-4,-22
1461661602147285,0,-5,-4,-2,-2,-1,-2,-2
1461661602147285,-6,-8,-9,-4,-3,-3,-3,-10
1461661602154263,1,-2,-10,-6,-4,-3,-3,12
1461661602154263,-2,-18,-2,-1,-1,-2,1,4
1461661602162268,2,18,3,0,-1,-1,-1,0
1461661602162268,-1,3,-3,0,-3,0,1,0
1461661602177278,0,6,12,3,1,-1,-3,-5
1461661602177278,-1,5,-7,-1,-1,-1,0,3
1461661602185286,0,4,2,-2,1,0,-1,-3
1461661602185286,-7,-30,-12,-2,-2,-3,-2,3
1461661602215336,0,-6,1,-2,-2,-1,-1,-4
1461661602215336,-1,-2,-18,-4,-3,-2,-2,-1
1461661602216306,-2,-5,20,3,0,-1,5,12
1461661602216306,1,9,-6,1,-3,-3,-5,-7
1461661602222369,-1,-7,-1,0,0,-1,-2,-6
1461661602222369,-4,0,-1,-2,-1,0,0,-4
1461661602223310,0,-8,-18,-3,2,1,-3,-5
1461661602223310,6,28,11,-1,1,-1,0,6
1461661602237332,-5,-22,-19,-10,-6,-2,-2,-3
1461661602237332,-2,2,13,4,0,-1,1,4
1461661602245385,-1,-2,6,-1,-1,-2,-1,-4
1461661602245385,-2,-4,-5,2,1,1,0,-4
1461661602259336,2,11,18,1,1,1,-1,-1
1461661602259336,-1,1,0,-2,-2,2,4,12
1461661602267358,-2,-1,-14,-3,0,-1,-3,-3
1461661602267358,-5,-18,-11,-3,-3,-2,0,-5
1461661602282409,2,18,-3,0,-1,0,-1,0
1461661602282409,1,-2,-5,-3,-1,-1,-2,-5
1461661602283353,-3,-6,-10,0,-2,-1,2,6
1461661602283353,0,0,5,0,0,0,0,-3
1461661602298364,-3,-3,-2,-1,-2,-3,-2,-1
1461661602298364,3,11,2,-1,1,1,1,8
1461661602305369,0,-8,-4,-5,-2,-1,-4,-5
1461661602305369,-3,-4,0,-3,-1,-1,-2,-4
1461661602319442,-3,8,2,1,-1,-2,2,-2
1461661602319442,1,-3,1,3,1,-2,-2,-4
1461661602327451,-2,0,6,-2,-4,-2,-2,-3
1461661602327451,4,3,-2,0,-1,0,0,0
1461661602342417,-4,-12,7,8,4,0,0,1
1461661602342417,0,-4,-9,-1,-1,0,-1,-1
1461661602343395,-1,-8,-7,-2,-2,-1,-2,-4
1461661602343395,-1,15,0,1,2,-1,-2,3
1461661602356421,1,8,11,-2,-5,-2,0,-1
1461661602356421,-7,-16,4,-6,-4,-1,-2,-6
1461661602364470,1,10,-6,-1,3,-2,-1,1
1461661602364470,-2,-19,11,4,0,-2,-1,-1
1461661602379438,-3,0,-10,-3,0,-2,-2,-3
1461661602379438,-1,-9,-1,0,-1,-2,-1,-2
1461661602387442,2,25,3,-1,-3,0,0,1
1461661602387442,-3,-8,-11,1,-1,1,0,-1
1461661602402453,0,6,2,-1,-2,0,3,8
1461661602402453,3,5,6,2,1,-2,-10,-23
1461661602403453,0,-8,-2,-1,-1,-3,-1,-2
1461661602403453,0,8,25,-2,-1,-1,-5,-1
1461661602416449,-6,-20,-71,-7,-2,-1,1,-5
1461661602416449,-4,1,0,-5,-1,1,5,11
1461661602424511,0,-8,10,3,2,0,-2,4
1461661602424511,0,10,4,-4,-4,-3,-2,-1
1461661602439462,-2,1,9,-1,-1,-1,-3,-3
1461661602439462,-2,2,-1,4,1,0,1,1
1461661602447528,3,8,12,1,1,0,-1,-2
1461661602447528,1,-3,0,2,2,-2,0,6
1461661602462538,4,3,-6,-5,-3,0,-2,-1
1461661602462538,-2,10,-3,-5,1,-2,-2,0
1461661602463480,-6,-26,9,2,-3,-1,0,-1
1461661602463480,2,8,-12,-2,1,0,-1,-3
1461661602476547,1,-10,-9,-3,-3,-2,-5,-4
1461661602476547,0,2,19,10,0,0,0,-1
1461661602484507,2,14,9,1,-1,-1,-1,0
1461661602484507,-6,-17,-16,-12,-4,-1,0,-3
1461661602499521,-3,-7,-3,0,-1,-2,-3,-4
1461661602499521,7,-1,-3,8,1,0,0,5
1461661602507540,-1,4,10,2,-2,0,0,1
1461661602507540,-3,-3,-14,1,0,-1,-2,-3
1461661602522553,-2,-1,11,-3,0,0,-1,0
1461661602522553,4,1,-2,-7,-4,-2,-1,-1
1461661602523523,-2,-16,-15,-5,-1,-2,0,-2
1461661602523523,-1,10,-6,-7,-3,-2,-1,-2
1461661602536546,0,7,9,6,3,-2,-2,0
1461661602536546,-4,2,-4,-3,-2,-1,-1,0
1461661602544552,-5,-7,5,0,1,-1,0,-4
1461661602544552,0,0,5,-3,-4,-2,0,0
1461661602559578,1,4,-17,-2,6,2,0,-1
1461661602559578,2,15,13,3,0,-1,2,0
1461661602575561,5,-1,-8,5,0,0,-1,1
1461661602575561,-2,-7,-8,2,-1,-1,-3,-2
1461661602582622,-3,-5,16,-5,-3,-2,-2,-1
1461661602582622,-1,-8,-5,-16,-11,-4,-4,-2
1461661602583568,2,2,3,12,10,5,0,2
1461661602583568,-3,-2,3,4,3,0,-1,3
1461661602596586,4,7,0,3,-2,1,2,0
1461661602596586,-4,-14,-12,-13,-4,-2,-1,-3
1461661602604591,-1,2,-8,-6,-7,-3,-3,-4
1461661602604591,2,0,-11,4,6,1,3,2
1461661602619738,3,-2,11,-9,-5,-5,1,4
1461661602619738,2,0,9,5,3,-2,-3,3
1461661602627744,1,14,11,-2,-5,-4,-4,1
1461661602627744,-1,0,-3,-17,-11,-3,-2,-2
1461661602642754,-6,-13,-13,-22,-8,1,0,-2
1461661602642754,2,5,13,51,28,8,4,4
1461661602643712,-1,-3,-10,1,4,2,0,1
1461661602643712,2,5,6,0,2,-1,-2,-2
1461661602656731,0,3,7,-5,-8,-2,-3,-2
1461661602656731,4,5,-15,-8,-6,1,0,0
1461661602664736,-10,-16,1,11,3,0,-1,-3
1461661602664736,3,-5,5,3,0,-2,-1,-2
1461661602679746,3,28,0,-7,-5,0,-1,-2
1461661602679746,-15,-36,-8,-15,-8,-3,1,-1
1461661602687757,8,20,10,2,-4,-1,0,2
1461661602687757,-1,-3,-3,-8,-4,5,29,8
1461661602710773,-6,-6,-9,11,5,5,-18,-1
1461661602710773,-6,-6,2,-22,-23,-10,-5,-7
1461661602711761,6,-9,-27,-37,-9,-9,-15,-3
1461661602711761,3,-8,-1,17,8,-8,-11,3
1461661602716764,-6,-5,4,11,12,-2,3,-1
1461661602716764,-7,5,10,18,11,4,5,-2
1461661602724770,-1,0,2,6,-4,2,4,0
1461661602724770,0,5,4,-30,-13,-2,-1,2
1461661602739781,3,-6,-9,9,-7,1,6,6
1461661602739781,4,-10,-10,-2,6,3,-6,4
1461661602747785,-1,3,-1,-7,-1,1,5,2
1461661602747785,-2,6,6,14,9,1,-6,0
1461661602770847,2,-4,3,-7,-5,-3,2,2
1461661602770847,5,14,-4,-14,-7,-5,0,-2
1461661602771803,-31,-31,-19,-1,-6,-3,-4,-5
1461661602771803,4,1,1,13,4,6,6,1
1461661602776849,8,9,-11,-1,1,3,17,-2
1461661602776849,-6,2,-2,-3,-7,-4,-1,1
1461661602784810,7,11,5,-24,-13,-5,-28,-3
1461661602784810,-21,-9,15,4,-5,-13,-30,-8
1461661602799808,-4,0,-8,2,7,-5,-3,-4
1461661602799808,-2,5,-6,-48,-21,-6,14,-2
1461661602807842,4,6,35,94,31,13,11,-8
1461661602807842,8,13,1,36,30,0,-12,-4
1461661602822824,1,10,13,7,0,-8,-13,-6
1461661602822824,0,-9,3,-16,-9,0,-3,-4
1461661602823825,4,-4,-19,-35,-10,-2,15,5
1461661602823825,-5,29,14,-10,-4,4,17,3
1461661602836849,-3,-16,-7,26,13,9,-1,2
1461661602836849,1,-6,-13,-17,-2,1,-11,-4
1461661602844854,12,37,18,-28,-11,11,26,9
1461661602844854,-17,-62,-35,15,11,9,-20,0
1461661602859851,-4,11,5,-16,-21,-27,-19,9
1461661602859851,25,41,-8,-24,-9,-15,-21,1
1461661602883866,16,-3,-2,-7,-13,-1,35,10
1461661602883866,-3,-1,2,-45,-14,27,71,11
1461661602885868,1,7,10,44,32,12,-55,5
1461661602885868,-15,-77,-2,55,7,-37,-58,-18
1461661602886869,-8,20,0,-60,-6,-32,-30,-8
1461661602886869,-16,-43,-8,13,-12,-15,4,-15
1461661602896880,0,34,8,-63,-33,9,33,-3
1461661602896880,0,-16,-16,47,44,36,49,8
1461661602904884,-4,-18,-3,25,7,12,-8,-4
1461661602904884,-8,8,-5,21,-4,5,19,-11
1461661602919895,12,4,6,26,19,39,38,3
1461661602919895,-25,64,1,-18,2,7,-2,-22
1461661602927898,8,-41,-19,-24,-23,-29,-24,-7
1461661602927898,-11,31,-10,-50,-10,-25,-42,-18
1461661602942907,7,44,13,14,-9,-14,30,-17
1461661602942907,-4,-37,1,0,-2,-1,-13,12
1461661602942907,24,-37,-11,4,1,-10,-35,7
1461661602942907,-5,-34,1,-25,-43,-39,-30,-7
1461661602956917,14,-94,20,-21,2,-8,-4,-4
1461661602956917,-47,-38,-16,-5,31,39,70,-2
1461661602963923,-7,22,9,118,79,44,12,9
1461661602963923,-1,-40,9,10,0,5,-29,-11
1461661602978937,-38,-43,4,-36,-23,-9,28,-19
1461661602978937,30,24,-8,24,-3,3,-2,-1
1461661602987952,-8,1,13,-48,-19,-9,18,-14
1461661602987952,1,67,-52,-72,9,15,8,5
1461661603001961,-17,-17,15,95,27,-11,-15,-15
1461661603001961,12,62,18,4,-19,-34,-30,6
1461661603009985,4,26,20,1,5,20,-8,-10
1461661603009985,16,53,30,5,1,28,43,17
1461661603025024,3,-2,-46,-49,-21,-5,25,24
1461661603025024,10,-63,-19,-37,-32,-41,-88,-5
1461661603025980,-47,-19,-22,-15,-27,-45,-49,-9
1461661603025980,18,3,24,-4,-9,-8,-22,0
1461661603038988,13,2,-35,-21,5,-4,-27,-5
1461661603038988,12,27,25,-21,6,26,79,36
1461661603048050,8,-4,4,60,26,29,61,30
1461661603048050,8,-86,-27,-31,3,14,13,14
1461661603070999,-14,-21,77,106,29,11,-44,-8
1461661603070999,1,8,-60,-24,-11,-17,-48,-28
1461661603072000,-9,27,54,-70,-33,-2,29,-4
1461661603072000,19,56,-18,68,21,19,68,33
1461661603085012,-1,-88,-72,-62,-3,6,43,9
1461661603085012,-26,51,-14,-38,-31,-40,-99,-28
1461661603093018,-10,27,19,-6,-13,0,53,-20
1461661603093018,13,5,41,28,16,17,-19,5
1461661603099021,3,5,-7,7,2,-28,-55,1
1461661603099021,3,5,19,16,-3,-15,26,4
1461661603108054,7,-32,-16,-27,-18,-5,34,15
1461661603108054,-31,23,-3,-35,-15,16,-7,-18
1461661603122066,-3,18,-22,-78,-39,-19,-60,-22
1461661603122066,17,47,52,93,52,-1,-2,-6
1461661603130070,-15,0,-22,39,20,-16,-27,-3
1461661603130070,11,18,24,-7,-17,-10,26,3
1461661603145066,-22,-15,-32,-77,-6,43,71,33
1461661603145066,10,57,63,64,29,17,-14,-18
1461661603146066,31,-16,3,41,4,30,24,-6
1461661603146066,-14,-34,-96,-51,-26,-13,-43,-12
1461661603159090,32,51,1,91,54,-6,1,-6
1461661603159090,-6,8,-6,-128,-62,1,37,9
1461661603168118,-64,-46,-2,79,33,9,-14,10
1461661603168118,-51,-77,-27,36,40,0,24,14
1461661603182116,16,14,35,-4,-30,-32,-50,-2
1461661603182116,29,-31,42,7,8,4,22,-23
1461661603190094,-11,53,48,-56,-19,15,-1,9
1461661603190094,31,4,-40,-24,-16,-9,3,-15
1461661603205123,64,68,-21,-96,-35,-2,-12,30
1461661603205123,-43,-83,-17,117,56,-2,-46,-19
1461661603206111,-4,-63,-108,-128,-69,-48,-63,-33
1461661603206111,-8,-11,101,120,42,3,62,-4
1461661603219132,-29,62,27,45,55,43,1,-14
1461661603219132,0,63,32,-128,-63,13,32,16
1461661603228126,-4,14,-40,106,57,22,7,-17
1461661603228126,-5,11,-23,33,6,-23,1,3
1461661603242135,84,61,58,72,9,-22,-36,25
1461661603242135,-78,-65,-48,-50,-19,-2,-6,-29
1461661603250141,-24,-53,9,-13,-1,-12,-36,-88
1461661603250141,49,-18,-46,62,6,-11,-55,-4
1461661603265176,-39,-55,10,6,3,2,41,23
1461661603265176,57,-78,-38,-44,-22,-5,75,57
1461661603266137,-47,56,6,-35,-14,16,-9,1
1461661603266137,46,13,31,-128,-55,-32,-35,18
1461661603279184,33,-7,9,-109,-77,2,43,13
1461661603279184,-14,-67,-78,119,107,43,-54,-65
1461661603288181,19,17,30,30,12,-1,15,-11
1461661603288181,56,109,89,-93,-48,-21,-18,10
1461661603302163,77,73,-33,-4,29,-12,0,41
1461661603302163,-66,25,16,31,-17,24,60,-11
1461661603310196,98,-93,-58,-48,-22,-8,-12,3
1461661603310196,79,114,15,102,89,29,38,84
1461661603325197,-77,-127,8,-48,-12,19,-52,-79
1461661603325197,-46,-32,-14,-27,-63,-58,-70,-40
1461661603326198,-27,-29,11,87,21,-9,-7,37
1461661603326198,-32,-32,-66,-41,-38,-22,-12,-28
1461661603341203,14,90,49,-12,11,-5,28,34
1461661603341203,41,-14,49,58,8,54,65,23
1461661603348194,-128,-68,12,-86,-35,-44,-85,-35
1461661603348194,12,-62,-66,-72,-36,-30,-29,-8
1461661603356214,-64,-46,-2,79,33,9,-14,10
1461661603356214,-51,-77,-27,36,40,0,24,14
1461661603365218,16,14,35,-4,-30,-32,-50,-2
1461661603365218,29,-31,42,7,8,4,22,-23
1461661603372251,-11,53,48,-56,-19,15,-1,9
1461661603372251,31,4,-40,-24,-16,-9,3,-15
1461661603374227,-61,-53,5,46,8,29,65,-20
1461661603374227,101,127,-9,-9,7,8,-5,38
1461661603377216,3,-54,-5,-89,-32,22,117,60
1461661603377216,90,72,21,126,89,55,-61,-61
1461661603385221,-128,-116,-2,46,22,-47,-98,-44
1461661603385221,-51,-27,-2,5,-1,-22,-3,16
1461661603386221,24,82,-47,-33,-40,3,16,5
1461661603386221,28,-2,39,-33,-31,10,43,18
1461661603399269,-7,28,-17,4,31,21,39,21
1461661603399269,103,71,-2,12,18,12,-5,17
1461661603407236,2,27,4,-24,-19,-1,51,55
1461661603407236,-115,-82,-13,-41,-40,-26,-37,-24
1461661603422247,66,111,1,54,18,-14,-73,-25
1461661603422247,-61,4,18,-5,4,-17,17,30
1461661603430253,2,15,10,-21,4,1,-9,-8
1461661603430253,-24,-117,-2,5,-4,35,41,-13
1461661603445263,-38,-25,-17,14,4,2,12,3
1461661603445263,105,8,-10,31,13,7,1,-7
1461661603446264,41,107,33,-14,5,-12,-24,4
1461661603446264,-43,-51,3,127,73,9,23,-3
1461661603459274,9,16,-8,-128,-96,-5,39,-28
1461661603459274,42,73,3,60,34,5,-22,9
1461661603467278,-12,-85,30,86,37,-16,-62,-16
1461661603467278,4,-29,-21,-28,-10,-3,-12,3
1461661603482290,18,64,-20,-47,-23,-9,25,24
1461661603482290,-67,-15,-3,-46,-27,-22,-2,8
1461661603490294,65,65,-14,-13,2,-13,-36,7
1461661603490294,3,17,6,-41,-15,-47,-17,-3
1461661603513372,23,-54,1,24,1,36,20,24
1461661603513372,-9,2,6,-22,-2,35,8,-7
1461661603514334,26,53,-9,22,17,21,-3,-1
1461661603514334,-63,-42,17,-30,-17,2,2,-30
1461661603519376,20,24,-34,-71,-52,-27,4,-18
1461661603519376,-19,-33,-5,77,59,-1,17,-5
1461661603527383,3,28,54,21,-6,3,0,-22
1461661603527383,31,48,37,101,56,7,3,-9
1461661603542396,-39,-55,-54,25,24,-4,-8,-40
1461661603542396,-14,22,5,-63,-49,-11,-1,3
1461661603550339,119,126,-20,-82,-21,3,42,30
1461661603550339,-94,127,25,60,36,25,28,9
1461661603565406,-35,125,6,28,4,-10,-55,8
1461661603565406,-29,107,-7,-45,-34,-27,-41,-15
1461661603566363,9,118,-17,9,3,-5,-1,33
1461661603566363,28,50,-17,-68,-40,-40,-67,2
1461661603579417,-17,-92,3,26,15,-9,-6,-11
1461661603579417,5,-126,10,1,-4,68,46,5
1461661603587381,10,-128,0,1,-5,3,15,-9
1461661603587381,-3,-100,6,-18,-5,23,33,15
1461661603602389,4,-108,32,25,3,0,6,-11
1461661603602389,4,-128,-45,-71,-34,-38,-21,-23
1461661603610439,-12,-126,25,115,85,26,11,-18
1461661603610439,-8,-117,-6,-46,-16,1,-8,-29
1461661603625449,-13,-79,-19,47,21,-9,-2,-21
1461661603625449,39,-24,34,12,-2,-7,16,4
1461661603625449,-55,44,-18,-45,-28,-7,-16,-14
1461661603625449,34,24,14,9,3,-5,48,43
1461661603639401,-35,50,17,-6,-4,20,-7,-1
1461661603639401,3,38,-20,-18,-2,-26,-36,14
1461661603647469,8,72,-12,9,-5,-68,-29,9
1461661603647469,3,44,-6,-16,-15,51,11,18
1461661603662446,54,39,12,-1,-4,45,33,21
1461661603662446,-38,-56,0,-14,-9,8,4,1
1461661603670481,-21,-94,-18,-2,-4,-10,-15,-13
1461661603670481,9,-74,-7,-55,-30,-43,-10,0
1461661603685445,18,-81,5,36,-1,-2,23,9
1461661603685445,-17,-31,49,69,68,16,-5,-13
1461661603686446,2,-53,-11,11,3,-10,-8,-13
1461661603686446,-21,-47,-40,-46,-13,-1,-11,-22
1461661603699501,-4,0,0,-5,-11,-13,-12,-19
1461661603699501,-30,39,5,-26,-20,-17,0,-23
1461661603707478,51,29,-5,-18,-15,15,16,30
1461661603707478,10,94,-5,8,8,2,-13,5
1461661603722460,-22,33,0,-1,4,-9,-16,15
1461661603722460,9,37,-9,-15,-18,-2,13,2
1461661603730494,14,53,0,-8,0,9,47,14
1461661603730494,-26,35,6,9,-2,5,-3,-1
1461661603745490,-11,25,-7,-9,-5,-10,-55,-23
1461661603745490,-9,7,-6,-6,-4,-18,-12,-5
1461661603745490,14,37,5,-11,-10,34,-12,-20
1461661603745490,8,-2,1,-16,-12,-25,1,10
1461661603759545,17,-19,-6,31,34,6,38,16
1461661603759545,13,-66,8,20,-6,7,3,-1
1461661603767493,-12,-62,-25,1,11,-4,-10,-10
1461661603767493,12,-17,29,35,13,-1,-7,-13
1461661603782519,-3,-20,1,-12,-2,-1,4,4
1461661603782519,3,-13,-18,-11,-12,-15,-4,10
1461661603790522,-11,51,11,6,-5,-2,-8,-11
1461661603790522,0,6,-7,1,-3,16,-1,20
1461661603805519,15,-13,-7,1,-1,-45,-17,11
1461661603805519,19,70,3,5,1,35,23,25
1461661603806519,-11,-46,-1,-10,-13,-18,11,16
1461661603806519,10,57,0,0,8,42,-3,-16
1461661603827536,-7,37,12,-6,-7,5,-2,14
1461661603827536,2,-38,-6,-12,-10,-15,-11,8
1461661603828537,-26,-105,-18,-4,-7,-10,-21,-16
1461661603828537,20,-80,-1,-11,-5,-20,-5,1
1461661603841547,11,-42,7,-31,-16,-1,26,3
1461661603841547,-2,-6,32,57,35,11,2,-9
1461661603850550,-1,-34,12,-18,-1,3,-13,-16
1461661603850550,-15,-53,-30,11,12,-10,0,-17
1461661603872624,-4,1,4,22,15,15,5,-22
1461661603872624,2,-7,-17,-15,-9,-11,0,-13
1461661603880583,14,8,10,10,0,4,-2,-4
1461661603880583,-27,4,2,-5,0,-2,-4,-6
1461661603882584,9,65,3,-22,-18,-8,-5,-1
1461661603882584,50,69,-7,-11,-8,-19,14,20
1461661603895587,-45,-4,-4,3,4,2,-14,3
1461661603895587,-25,0,-7,-10,-6,6,3,4
1461661603901597,4,21,-4,9,3,-7,2,9
1461661603901597,9,19,6,-7,-1,27,35,26
1461661603910604,6,33,-1,-6,-9,12,-6,-4
1461661603910604,5,-8,-2,6,-1,-16,-15,-6
1461661603924614,2,-21,27,7,1,4,6,-5
1461661603924614,-14,-40,-29,-26,-9,-22,-17,-15
1461661603932619,-13,-26,-25,-17,1,-4,0,-1
1461661603932619,-8,-22,-1,10,5,-1,-5,-14
1461661603939629,6,-13,5,6,4,0,5,-8
1461661603939629,-14,-7,5,-10,-10,5,-9,-11
1461661603946629,-6,2,13,9,3,-3,-1,-15
1461661603946629,4,5,6,2,-2,-7,-2,-8
1461661603961630,15,10,-24,-15,-10,3,-5,8
1461661603961630,-11,21,-1,-5,-2,-15,-5,-7
1461661603969673,-10,13,-12,2,1,9,1,5
1461661603969673,5,53,13,-1,-1,7,8,18
1461661603984656,-8,78,-18,-11,-9,4,5,14
1461661603984656,1,90,-9,-7,-6,-10,-14,12
1461661603992689,5,127,-6,10,9,14,9,19
1461661603992689,-10,86,6,7,-2,6,21,45
1461661603999676,5,-3,34,-7,-2,-1,-21,-16
1461661603999676,7,-58,-14,2,1,-10,-3,2
1461661604006681,-13,-100,30,-9,-4,-15,-3,-8
1461661604006681,-3,-102,-62,-5,-7,-11,-18,-33
1461661604021692,-4,-91,-38,-1,-3,1,10,0
1461661604021692,-2,-35,55,0,0,4,-3,-7
1461661604029698,-1,-55,28,-3,4,3,0,-10
1461661604029698,-6,-47,-21,11,-2,-2,-5,-14
1461661604044708,-1,-52,-21,-13,-8,-3,-3,-11
1461661604044708,-2,-43,-8,-13,-3,2,0,-10
1461661604052693,1,-23,6,13,10,2,1,0
1461661604052693,-2,-4,25,-5,-3,-7,-10,-16
1461661604059698,-2,-7,-4,7,-2,-1,-4,-7
1461661604059698,-1,-13,10,2,-5,-3,1,-1
1461661604075728,-1,8,-9,4,4,-8,-7,-3
1461661604075728,-6,9,29,-4,-5,33,10,-3
1461661604081772,-3,21,-33,-5,-3,0,2,-3
1461661604081772,-2,0,13,0,5,9,7,2
1461661604089734,2,18,-17,6,-2,-11,-6,0
1461661604089734,-10,6,16,-16,-6,-31,-19,-16
1461661604104744,1,4,-1,7,-1,8,4,4
1461661604104744,0,43,-15,0,2,4,9,6
1461661604112750,-1,20,2,1,-1,-3,-12,-30
1461661604112750,-4,6,30,4,-4,-8,-5,-10
1461661604127814,2,-1,-22,-9,-5,-6,0,-10
1461661604127814,7,-2,-4,2,5,3,2,0
1461661604134752,1,-2,8,-4,2,7,8,4
1461661604134752,0,-2,-8,-4,0,-2,-10,-3
1461661604141773,-2,-19,21,6,0,-11,1,-5
1461661604141773,1,-12,-14,5,0,9,-2,-2
1461661604149780,-5,1,4,-9,-8,-2,5,4
1461661604149780,-5,-5,23,-8,-5,-6,-7,-4
1461661604164777,-1,2,-32,-4,0,-3,-5,-1
1461661604164777,-1,-9,-15,-9,1,1,0,-4
1461661604172807,4,8,14,9,7,4,6,2
1461661604172807,2,7,-7,-5,-7,-10,-3,-2
1461661604187806,-5,-3,-7,-4,-2,0,-2,0
1461661604187806,-6,-6,-12,-3,-1,0,0,0
1461661604188806,-7,-2,-15,-5,-4,3,3,5
1461661604188806,2,18,19,4,-1,-7,-2,2
1461661604201801,2,2,-30,4,1,15,4,6
1461661604201801,-2,-5,18,7,0,-6,-2,1
1461661604209807,-1,-7,-17,-1,1,4,1,5
1461661604209807,2,6,11,-1,-3,-1,-4,2
1461661604225817,3,4,5,4,2,-2,-2,3
1461661604225817,-1,-4,1,3,1,-3,-2,0
1461661604232882,-2,-2,-9,-4,-3,1,6,14
1461661604232882,-2,0,27,-4,-4,-1,-3,-2
1461661604247832,1,-4,-51,-14,-1,0,0,-6
1461661604247832,-3,0,14,-5,-2,-1,-2,1
1461661604248857,0,-6,-31,-2,2,3,-1,-5
1461661604248857,-4,5,16,-2,-3,-7,-1,5
1461661604261841,-4,-7,4,2,1,-3,0,-2
1461661604261841,-1,5,-6,4,0,2,-4,-3
1461661604269849,0,9,12,-1,0,0,2,6
1461661604269849,0,2,-35,-1,1,0,-2,-4
1461661604284875,0,9,48,9,1,-2,-2,-2
1461661604284875,0,5,-14,0,1,1,0,-4
1461661604292880,-3,6,17,2,0,-2,-3,-5
1461661604292880,-4,-4,-10,-12,-4,-5,-4,-3
1461661604307934,2,14,35,9,2,1,0,2
1461661604307934,-1,-15,-83,-13,-1,2,3,5
1461661604308893,2,5,-6,-2,1,0,0,3
1461661604308893,-4,-12,-6,-5,-3,-2,-8,-12
1461661604321945,2,3,42,-3,-4,-1,2,3
1461661604321945,1,0,26,5,-2,2,-3,-2
1461661604329951,0,-2,-13,2,2,2,-1,-4
1461661604329951,1,-3,-16,-1,-1,-1,0,-1
1461661604344918,2,7,6,-3,0,-1,-2,1
1461661604344918,3,4,9,4,-1,0,-1,3
1461661604352923,1,1,1,-8,-2,-2,-1,-3
1461661604352923,1,13,2,2,-3,0,-1,5
1461661604367928,-1,-2,6,-1,-1,-2,-3,2
1461661604367928,1,-1,15,0,-3,-2,0,3
1461661604367928,-4,-9,-18,0,5,-2,0,3
1461661604367928,-2,-14,-65,-3,5,3,0,3
1461661604381964,-3,-1,-10,-9,-5,-3,-1,1
1461661604381964,3,6,15,5,3,1,1,5
1461661604389943,-2,0,29,4,-6,-1,-3,0
1461661604389943,-1,2,0,-1,-4,-2,-1,3
1461661604403958,-3,-3,-15,-8,-1,-1,1,5
1461661604403958,-2,-4,-4,-5,-2,-2,0,2
1461661604412986,-1,4,-3,-2,-4,-3,-2,-2
1461661604412986,-3,0,8,0,-1,-1,1,2
1461661604428022,0,3,7,1,-1,0,0,2
1461661604428022,-2,-1,7,-7,-3,-2,-2,0
1461661604428963,1,-2,4,0,0,-1,-1,-2
1461661604428963,3,-1,-8,1,-1,-3,-1,-2
1461661604441997,2,0,4,3,0,-1,-1,-1
1461661604441997,3,4,-6,-1,1,1,-1,-1
1461661604449978,-3,-6,-8,0,-3,-3,-1,-4
1461661604449978,2,-1,2,3,2,-1,0,-2
1461661604464985,1,2,11,-2,-2,-2,0,0
1461661604464985,0,-1,-6,1,-1,-1,-1,1
1461661604473019,-1,-7,-13,-1,2,2,-1,0
1461661604473019,1,3,-2,2,0,0,0,-3
1461661604488015,5,11,18,-3,-3,-3,0,6
1461661604488015,1,-1,0,-13,-7,-2,-1,-1
1461661604488015,3,4,11,19,13,4,1,1
1461661604488015,-1,0,5,2,2,0,-1,0
1461661604502011,0,2,10,0,0,1,-1,-1
1461661604502011,-5,-11,-44,-2,2,-1,-1,-2
1461661604518036,-4,1,9,-7,-5,-4,-4,-1
1461661604518036,-2,5,-8,-2,-2,1,2,3
1461661604524065,-3,-7,-12,-3,-1,-1,0,0
1461661604524065,0,7,9,-1,-2,-1,0,0
1461661604533078,-3,-13,-3,-6,-4,-2,-2,-1
1461661604533078,0,-1,-5,-1,0,0,0,1
1461661604548073,-1,0,18,5,1,0,0,1
1461661604548073,-6,-10,-12,-1,2,0,-1,-2
1461661604548073,3,8,1,0,-1,-1,-1,0
1461661604548073,2,3,0,-4,-3,-2,-4,0
1461661604562081,-1,-4,-8,1,-1,-2,-1,-1
1461661604562081,1,0,5,3,2,1,0,-1
1461661604570087,-3,-6,0,-9,-6,-2,-2,-3
1461661604570087,-1,-3,-4,-3,-2,1,-1,-3
1461661604593090,0,1,3,4,0,-1,-3,-5
1461661604593090,0,2,3,5,3,0,-2,-2
1461661604594075,0,5,2,0,-5,-3,0,0
1461661604594075,-3,-7,-13,-4,1,-1,-1,-3
1461661604608140,2,0,-11,0,2,1,-1,-2
1461661604608140,1,3,8,-6,-4,-1,-2,0
1461661604608140,-3,-2,-6,-5,-4,-2,-3,-3
1461661604608140,-3,-7,4,-3,-3,-1,-1,0
1461661604622219,-2,2,4,2,-1,-3,-2,-2
1461661604622219,0,-1,-8,-4,0,0,0,0
1461661604630254,-3,-4,-5,-2,-2,-2,-1,-3
1461661604630254,-1,5,2,-2,-2,-1,-2,-1
1461661604644212,-5,-7,-19,-8,-5,-3,-1,-5
1461661604644212,-2,-2,16,10,3,2,0,-1
1461661604653218,0,-2,-1,-3,0,-2,-3,-2
1461661604653218,2,6,2,-2,-2,-2,-1,-1
1461661604667220,-2,-6,5,-11,-3,-3,-3,-2
1461661604667220,1,-4,-9,4,1,0,0,-2
1461661604668223,-3,-3,0,0,0,0,0,-3
1461661604668223,0,9,5,3,1,-1,0,-1
1461661604682231,0,2,-9,6,3,2,0,0
1461661604682231,-3,-5,-5,-8,-2,-1,-1,0
1461661604690239,-3,-8,-12,-5,-3,-2,-2,-2
1461661604690239,2,1,3,-3,-4,-2,0,-1
1461661604704304,0,-1,0,-3,-5,-2,-2,0
1461661604704304,1,-2,-7,2,4,1,2,0
1461661604712311,0,6,27,-5,-4,-2,-1,-1
1461661604712311,-1,0,-20,1,-2,0,0,1
1461661604727322,0,4,12,5,3,1,1,1
1461661604727322,-3,-3,-11,1,2,1,0,1
1461661604728279,-2,1,7,-4,0,-3,-2,-1
1461661604728279,1,0,1,-1,0,0,-1,-2
1461661604742330,0,-2,2,1,0,-2,0,-2
1461661604742330,-1,-1,-14,-12,-8,-4,-2,-2
1461661604750281,-2,-1,-4,3,2,3,-1,-3
1461661604750281,-2,-4,1,4,2,-1,0,-1
1461661604764295,-2,-5,-16,1,1,1,0,-1
1461661604764295,0,3,26,-1,-3,-2,0,0
1461661604772301,0,-1,-8,-9,-3,0,-1,0
1461661604772301,-2,-7,-3,7,3,-1,-1,-2
1461661604787319,1,-2,-5,0,0,-1,-1,-1
1461661604787319,1,7,2,4,-1,-3,-1,1
1461661604788305,0,-2,-1,-3,0,0,0,-3
1461661604788305,1,-2,-23,-11,-6,-2,-1,-1
1461661604802336,-4,-4,28,0,-1,-2,-1,-2
1461661604802336,0,-1,-11,3,1,0,-1,-4
1461661604810329,-1,1,-3,8,1,-1,0,1
1461661604810329,-1,2,7,-2,-1,-1,-1,0
1461661604824392,1,4,0,-3,-7,-2,-2,-2
1461661604824392,-2,-5,8,2,3,-1,-1,-2
1461661604832489,-2,-3,-20,-6,-2,-2,-1,0
1461661604832489,1,1,1,-5,-1,-1,-1,0
1461661604847503,-3,1,21,2,0,0,-1,-3
1461661604847503,-2,-4,6,-4,-3,-1,-1,0
1461661604848448,-3,-4,-7,2,1,-1,-1,-2
1461661604848448,-1,-3,-5,2,-1,-3,-1,-1
1461661604862480,2,-3,-17,-7,-2,-1,-2,-1
1461661604862480,0,0,14,4,1,1,0,-1
1461661604870486,-2,0,-8,0,-3,-3,-3,-1
1461661604870486,-1,-2,-2,-7,-4,-1,-1,2
1461661604884470,-1,-1,-2,-1,-1,-1,0,3
1461661604884470,-1,5,-1,6,2,-1,-1,1
1461661604892474,-2,-1,24,-9,-6,-3,-2,-2
1461661604892474,-2,-2,3,-1,0,1,0,-5
1461661604907483,1,-3,-20,-5,-3,0,-1,-1
1461661604907483,0,-2,-8,5,6,2,0,0
1461661604915490,0,7,18,14,5,0,-3,-1
1461661604915490,0,-4,7,0,0,0,-1,1
1461661604921494,2,7,3,-2,1,0,-1,-2
1461661604921494,-4,-7,-14,-9,-7,-3,-2,-2
1461661604930500,0,-2,-8,-3,-2,-1,0,-1
1461661604930500,-4,-7,-15,-4,-3,1,0,-2
1461661604944509,0,0,-8,-1,-1,0,0,-1
1461661604944509,0,-1,4,-4,-3,-1,-2,0
1461661604952515,2,-1,-13,1,-1,-1,-1,-1
1461661604952515,2,5,6,0,0,0,-1,1
1461661604966525,-1,-6,-3,-3,-2,-2,-1,-1
1461661604966525,1,3,5,4,2,0,-1,-1
1461661604975530,-2,-4,-5,-1,-1,0,0,0
1461661604975530,-1,-1,2,-1,-2,-3,-2,0
1461661604981538,-1,-1,-12,5,3,-1,0,-1
1461661604981538,0,1,23,-1,-3,0,-1,-1
1461661604990542,0,0,-7,-2,1,-2,-1,-1
1461661604990542,-3,-6,0,-11,-7,-4,-2,-1
1461661605004552,0,2,-10,16,7,1,1,2
1461661605004552,-1,-4,3,-9,-7,-4,-2,-1
1461661605012560,-2,-3,1,1,2,-1,-1,-4
1461661605012560,2,2,-10,-7,-4,1,0,-1
1461661605026659,-1,0,18,2,0,-1,-1,0
1461661605026659,1,5,2,4,1,-2,0,0
1461661605035619,-3,-5,-3,-4,-4,0,-2,0
1461661605035619,-5,-10,-4,2,0,-2,-2,-1
1461661605043617,1,-2,-7,-6,-2,2,-2,1
1461661605043617,-2,0,-5,-4,-2,0,-1,-2
1461661605050621,-2,1,2,-2,-3,-3,-1,-3
1461661605050621,0,-2,-7,0,0,-1,0,1
1461661605064627,-2,-1,2,5,2,2,2,1
1461661605064627,-3,2,10,0,0,0,-1,0
1461661605072646,-2,0,-4,-4,-2,-2,-2,-4
1461661605072646,-3,0,3,1,0,0,-1,-2
1461661605086644,-2,-2,-6,-5,-3,-1,0,0
1461661605086644,-1,-1,1,-12,-4,-3,-2,-1
1461661605094707,-3,-6,-10,10,2,0,0,1
1461661605094707,1,6,26,1,0,-1,0,1
1461661605110719,-1,-4,-19,2,0,0,0,-3
1461661605110719,-2,-4,-12,2,0,-1,-1,-2
1461661605111664,-1,-1,6,-6,-5,-1,-2,-1
1461661605111664,1,-1,-4,-6,2,2,1,-1
1461661605124729,-1,2,15,1,-1,-1,-2,-2
1461661605124729,2,-6,-20,-2,-4,-1,-1,-3
1461661605132735,-2,-11,-17,-3,-1,-1,1,-2
1461661605132735,0,6,3,2,-2,-2,0,0
1461661605146758,-3,-2,-3,-10,-4,-2,-1,-1
1461661605146758,-2,0,6,-2,0,-2,0,-2
1461661605155693,-2,5,2,-6,-4,-2,-2,1
1461661605155693,2,0,-9,10,2,-1,-1,0
1461661605170775,2,2,3,-5,-2,-1,-1,-2
1461661605170775,-1,1,4,0,-2,0,-2,-2
1461661605171709,-1,-1,-1,1,0,-2,0,-3
1461661605171709,-1,-4,-13,-5,-1,-2,0,-2
1461661605184716,-1,-1,0,-3,-2,-2,-1,1
1461661605184716,0,-1,-1,1,2,0,0,1
1461661605192735,-3,-5,-10,-1,-1,-1,-2,1
1461661605192735,-2,5,18,2,-2,0,-2,-1
1461661605206729,-1,1,16,-3,-4,1,0,-1
1461661605206729,-4,-10,-4,4,3,-2,1,-2
1461661605215737,0,0,-7,-3,0,-1,1,-3
1461661605215737,-2,-6,-8,4,-2,-1,-2,-5
1461661605229746,1,0,-10,-5,0,-1,1,0
1461661605229746,1,2,5,3,-3,0,-2,2
1461661605238751,1,0,2,-6,-2,0,-2,-1
1461661605238751,2,2,4,3,1,1,-2,0
1461661605244755,0,2,3,3,-1,-2,-2,1
1461661605244755,-1,-2,-7,-4,-2,-1,-2,-1
1461661605253762,-2,0,10,2,1,-3,-3,0
1461661605253762,0,3,-9,-5,-2,1,1,-1
1461661605267771,0,-2,-19,-2,0,-1,0,-1
1461661605267771,-3,-4,9,-2,-3,-2,-1,0
1461661605275777,1,-1,1,-7,-1,0,0,1
1461661605275777,-3,-4,3,-4,-1,-1,-2,0
1461661605289786,-1,-2,9,6,4,0,-1,-2
1461661605289786,1,5,-13,-1,-3,-1,-1,-1
1461661605298796,-1,-3,-4,-2,-1,-1,0,-1
1461661605298796,-1,0,2,1,-1,-3,-1,-1
1461661605304827,-1,-3,0,-1,0,-1,-1,0
1461661605304827,0,-2,-18,-2,-1,1,-1,-2
1461661605320816,-3,4,11,-1,-1,0,-2,-2
1461661605320816,-4,-3,4,5,2,-1,0,0
1461661605326817,-1,-3,-2,-4,-3,-3,-1,0
1461661605326817,-3,-8,-2,-8,-6,-1,-2,-1
1461661605335824,1,3,-1,9,5,-1,0,-1
1461661605335824,0,-1,-13,1,1,-1,0,0
1461661605349833,-5,-9,22,4,-2,-4,-1,-2
1461661605349833,-2,1,1,6,4,-1,-1,0
1461661605358870,-2,-2,-6,-2,-5,-3,-2,-3
1461661605358870,1,1,-13,-4,-3,-2,-1,-1
1461661605364908,-1,0,5,-4,0,-2,-1,-1
1461661605364908,-2,-1,1,-5,-1,-2,-1,-1
1461661605373878,-4,-2,5,-4,-3,-1,0,0
1461661605373878,-3,-2,7,5,5,2,0,2
1461661605386868,-1,2,-15,2,1,1,1,1
1461661605386868,-1,-2,-5,-1,0,-1,-2,-3
1461661605401878,0,-4,2,-2,-1,-1,-2,-4
1461661605401878,1,3,7,-8,-6,-4,-2,-1
1461661605409872,1,-7,-36,0,2,-1,0,-2
1461661605409872,-1,3,19,1,-1,-2,-1,-1
1461661605418879,-1,3,-8,1,0,-1,0,1
1461661605418879,-2,-5,13,-3,1,2,-1,-1
1461661605424948,2,4,-8,3,-2,-1,0,3
1461661605424948,-1,1,0,-9,-5,-1,-3,1
1461661605433998,-3,-5,2,10,3,1,-1,-1
1461661605433998,0,-5,-9,-1,-1,0,-2,-1
1461661605447026,2,4,8,-14,-6,-1,-1,-3
1461661605447026,-1,-5,-11,6,1,-2,-1,-2
1461661605463025,1,2,-6,-1,-1,-2,-2,-1
1461661605463025,0,0,8,0,-1,-4,-1,-2
1461661605470046,-2,-5,-5,-1,-2,-1,-1,-3
1461661605470046,-1,0,-4,-4,-2,-3,1,-1
1461661605479047,-3,-5,-9,-8,-4,-2,0,0
1461661605479047,-1,-3,2,2,-1,-1,0,1
1461661605484048,-1,4,-1,2,0,0,-2,2
1461661605484048,-2,-1,5,-5,-2,0,1,-1
1461661605493053,-2,-2,-9,1,0,0,0,0
1461661605493053,0,-1,-5,-5,-1,1,-2,-4
1461661605507051,-1,-3,5,-9,-6,2,-3,-2
1461661605507051,0,2,-9,10,2,1,-2,0
1461661605516071,-2,3,17,10,2,0,1,2
1461661605516071,-4,-3,-1,-3,-4,-3,-4,-3
1461661605529123,-3,0,6,-1,3,-1,0,-1
1461661605529123,0,1,6,-3,-3,-2,-3,-3
1461661605547086,-1,-12,-27,-9,-6,-2,-2,-5
1461661605547086,-1,-1,1,-1,-1,-1,0,-2
1461661605547086,0,-2,-7,5,3,1,1,-1
1461661605547086,-2,0,14,-3,-2,0,-3,-2
1461661605553089,-4,3,8,-2,-1,-2,-2,-1
1461661605553089,-2,0,-8,0,0,-2,2,3
1461661605567094,1,5,2,2,-1,-4,-1,2
1461661605567094,-1,-6,-5,4,2,-2,-1,3
1461661605576116,-1,-2,3,-6,-4,-1,-2,-3
1461661605576116,-2,-1,-1,-2,-2,2,0,0
1461661605589123,0,1,4,-1,0,0,0,-2
1461661605589123,1,1,-9,-1,-1,2,0,0
1461661605598166,1,1,8,3,1,-1,-2,0
1461661605598166,2,-1,7,-2,-2,-1,0,1
1461661605604135,2,2,6,9,4,1,1,-1
1461661605604135,-2,-7,-12,-2,0,-1,-2,-4
1461661605613140,-1,-3,-1,-8,-4,-2,-2,-4
1461661605613140,0,3,-4,6,6,0,-1,-1
1461661605627193,-1,-1,6,2,-4,-3,-2,-2
1461661605627193,-1,-4,-6,-14,-6,-1,1,-1
1461661605636140,-1,1,-9,24,10,1,2,3
1461661605636140,-2,-7,5,-4,-3,1,-1,-2
1461661605649208,-2,-2,0,3,1,0,-1,-3
1461661605649208,0,1,-3,-5,-2,-2,-1,-2
1461661605658172,-2,1,6,-7,-4,-1,-1,-1
1461661605658172,3,6,19,1,-2,-1,-1,0
1461661605664219,-3,-8,-24,-5,-1,-1,-2,-1
1461661605664219,-3,-2,-5,-1,-1,1,-1,-2
1461661605673194,-3,-3,-4,-8,-2,0,-2,-2
1461661605673194,0,2,-4,-1,-1,-1,-2,0
1461661605687177,-2,-2,1,-4,-6,-1,-1,-1
1461661605687177,1,3,4,9,5,2,0,-1
1461661605696183,-3,-3,6,-3,-3,-1,-1,-2
1461661605696183,3,5,1,-7,-5,-4,-2,-1
1461661605710251,0,-3,6,7,6,0,0,0
1461661605710251,1,3,-6,2,4,0,2,3
1461661605718211,-1,-2,-5,-3,-3,3,-2,-2
1461661605718211,-1,5,1,6,1,1,-1,-1
1461661605724266,-3,0,0,-11,-4,-1,-2,0
1461661605724266,-2,-1,-3,-4,-4,-6,-1,-1
1461661605741217,0,-1,-4,-10,-1,-3,-1,-1
1461661605741217,1,-4,-8,-2,-2,-3,-1,-4
1461661605747221,0,-2,-4,4,2,-2,-1,-2
1461661605747221,-1,-2,4,2,1,-2,-2,-1
1461661605756227,-2,0,6,-7,-3,-3,-2,-1
1461661605756227,0,-2,0,1,-1,-1,1,-2
1461661605769236,-2,-6,-5,-5,-3,-2,-1,0
1461661605769236,-1,-1,-1,-5,-5,-2,-1,-1
1461661605778259,-2,-4,-5,1,-1,0,1,-2
1461661605778259,-2,0,-8,2,3,1,-2,-1
1461661605784245,1,8,14,-5,-4,-2,0,-3
1461661605784245,-2,-5,-3,-6,-3,2,1,-2
1461661605793272,0,1,-5,2,2,-3,-2,0
1461661605793272,-4,-6,-8,-7,-2,-1,-1,1
1461661605807322,-1,1,4,7,0,-1,2,1
1461661605807322,-1,0,1,3,-1,-3,0,-4
1461661605816269,-2,3,-2,0,0,-3,0,0
1461661605816269,1,4,4,0,1,-2,2,1
1461661605829339,0,-2,-5,-1,-2,1,-1,0
1461661605829339,2,2,2,7,6,1,-2,0
1461661605838286,2,-4,2,-5,-3,2,0,1
1461661605838286,0,-4,-6,-7,-7,-4,-1,1
1461661605844291,2,3,8,-7,0,-2,-1,-1
1461661605844291,-5,-12,-4,10,-1,-4,-2,-4
1461661605853296,0,1,-1,-4,-5,-1,-3,-3
1461661605853296,0,-1,3,11,2,0,0,-4
1461661605867305,5,2,0,-6,5,3,-5,-3
1461661605867305,0,0,4,-2,-1,-1,11,3
1461661605876316,-3,-1,-8,-2,-1,-1,-3,1
1461661605876316,-4,-2,-1,-7,-5,-2,-9,-7
1461661605889319,0,-1,1,6,0,-1,-1,-2
1461661605889319,-1,-2,-4,-11,-6,1,-6,-2
1461661605898325,-3,2,7,9,7,4,6,5
1461661605898325,-1,4,-13,2,2,1,-3,2
1461661605904333,-2,5,2,-2,-4,-2,-3,-2
1461661605904333,-3,-2,-5,-16,-9,-3,-4,-2
1461661605913339,0,0,-1,-3,3,-1,2,0
1461661605913339,-1,-1,-10,0,-2,-1,3,-1
1461661605935352,-6,-8,6,-8,-10,-1,-2,2
1461661605935352,1,9,7,46,26,6,4,3
1461661605937354,2,-5,-2,0,-3,-4,-3,-1
1461661605937354,-3,-13,-4,-8,-4,-4,-2,-1
1461661605949362,4,-3,-10,-14,0,-1,3,5
1461661605949362,-4,-5,0,-1,-4,-4,-4,-1
1461661605958370,-1,-2,-3,-9,-2,-3,-3,-5
1461661605958370,-5,-1,-4,-2,0,-1,4,1
1461661605964384,1,0,-4,-5,-6,-2,1,1
1461661605964384,-8,-12,-2,-11,-4,0,3,-2
1461661605973393,-3,2,-3,-8,-3,0,-5,0
1461661605973393,-1,-1,7,15,7,-4,-19,-5
1461661605987400,4,3,3,-1,-5,-4,-3,1
1461661605987400,2,-14,-6,-18,-13,-4,-8,0
1461661605996430,0,-1,-7,4,13,4,1,-3
1461661605996430,4,8,3,-2,5,5,10,5
1461661606009407,-8,-7,-4,18,-2,2,0,-6
1461661606009407,1,-5,-6,-4,-3,-1,0,1
1461661606018411,1,-9,-7,-6,-15,-6,0,1
1461661606018411,3,13,18,4,8,5,3,0
1461661606032484,-4,-4,-1,17,9,-1,2,-6
1461661606032484,-2,-9,-14,-12,-6,-3,-4,-7
1461661606041458,-7,3,-6,3,-2,1,1,-2
1461661606041458,5,1,-4,-26,-13,-4,11,8
1461661606047462,-10,5,12,20,11,1,-11,-2
1461661606047462,2,6,-6,-17,7,3,-1,-4
1461661606056447,9,-4,6,32,5,1,-7,5
1461661606056447,5,9,1,-10,-10,-5,-6,0
1461661606069476,12,-13,-9,-4,-4,-8,2,4
1461661606069476,-9,-3,5,-6,-11,-9,-11,-4
1461661606078468,3,-6,-10,-43,-11,-7,-3,-5
1461661606078468,8,11,9,41,26,10,5,7
1461661606093489,11,-7,-7,-9,-7,3,6,9
1461661606093489,7,23,9,-1,-12,-4,6,7
1461661606094480,-15,-27,-5,-6,-2,1,-5,-5
1461661606094480,8,12,13,-20,-3,3,17,9
1461661606107489,-18,-22,-10,51,32,8,-2,-6
1461661606107489,5,18,-1,-14,6,9,-15,-9
1461661606115559,9,40,45,45,4,4,8,-1
1461661606115559,-22,-49,-42,-29,-16,-13,-3,2
1461661606129598,15,13,2,0,5,4,0,4
1461661606129598,6,-30,-6,-17,-7,-3,-8,-7
1461661606138547,6,3,-3,-15,-7,-13,-14,-8
1461661606138547,-19,-14,-2,-6,-10,-6,-4,-15
1461661606153568,1,9,-2,-18,-15,-14,-1,9
1461661606153568,13,13,0,-28,-26,-12,-22,13
1461661606154570,-7,-12,11,17,20,10,32,10
1461661606154570,-13,11,-5,28,14,7,-15,-16
1461661606166624,-4,-19,3,-27,-18,-1,-10,-16
1461661606166624,12,7,1,-42,-13,2,13,6
1461661606175635,-29,-12,-7,21,26,-4,-11,-13
1461661606175635,8,-22,0,12,-18,-9,12,5
1461661606189593,-28,4,4,15,20,12,23,-12
1461661606189593,-23,-4,-1,68,27,16,12,-3
1461661606198590,8,18,2,-44,-29,-3,-9,-5
1461661606198590,-6,-25,-27,0,14,-4,-7,-14
1461661606212659,-3,10,-3,-20,-14,-16,-47,-21
1461661606212659,2,-5,10,11,-1,-17,5,-14
1461661606219661,19,16,-6,13,2,6,23,8
1461661606219661,10,21,7,13,2,12,1,-1
1461661606226667,-9,2,-21,-77,-27,9,31,12
1461661606226667,-36,-23,11,19,10,-14,-34,-10
1461661606235628,4,27,3,8,-19,-28,-32,-4
1461661606235628,7,1,27,21,-4,-7,-14,-14
1461661606249686,37,43,10,-23,-4,5,-1,-4
1461661606249686,-36,-9,-23,-26,3,13,37,-5
1461661606258631,-16,-24,-22,17,28,22,2,-6
1461661606258631,2,-19,6,-91,-51,-4,30,4
1461661606271698,3,-11,-1,96,61,9,-22,-3
1461661606271698,22,-8,7,13,5,5,33,13
1461661606281649,-9,4,1,-45,-20,-13,-27,-9
1461661606281649,-2,19,-8,7,17,-11,-20,1
1461661606286653,12,10,6,-29,-34,-3,14,15
1461661606286653,9,-5,-17,39,14,-6,-23,0
1461661606295687,14,-20,5,4,5,11,28,9
1461661606295687,5,-4,9,-20,-7,19,7,24
1461661606309669,-26,-24,-9,9,-4,-19,-50,-29
1461661606309669,32,-14,-18,-53,-31,-17,44,20
1461661606318673,-25,-29,47,-55,-22,6,-31,15
1461661606318673,0,-2,-17,61,44,1,-12,-26
1461661606333684,16,-65,18,59,1,-17,-33,-3
1461661606333684,1,41,-25,-48,-10,-11,-37,-11
1461661606334685,-5,-32,20,73,26,13,38,5
1461661606334685,5,44,14,-102,-58,-3,29,16
1461661606346692,-14,3,-48,16,18,14,20,15
1461661606346692,-2,-33,-21,-49,-3,4,5,1
1461661606355699,6,61,-8,15,9,14,68,15
1461661606355699,-5,-32,29,-30,-17,11,-18,9
1461661606369710,-5,94,6,73,17,-20,-44,-36
1461661606369710,9,3,-35,23,11,-13,-46,-3
1461661606378763,26,38,6,-113,-74,-21,-28,-2
1461661606378763,-38,-67,-30,94,82,12,19,10
1461661606391796,9,10,19,38,-15,-17,27,-2
1461661606391796,-33,-20,-8,6,8,6,9,4
1461661606400764,13,-12,-27,-26,-6,2,14,6
1461661606400764,-16,18,-5,-43,-37,-7,-48,-28
1461661606406769,26,-17,11,-28,-10,-22,-30,12
1461661606406769,1,38,27,7,-3,3,28,1
1461661606415777,-22,-19,-30,-21,5,-5,19,-8
1461661606415777,-5,9,63,-11,-11,5,30,5
1461661606430788,7,9,-45,-13,34,26,-6,8
1461661606430788,-10,1,35,17,-13,-12,-21,-16
1461661606438792,3,8,6,19,23,3,11,10
1461661606438792,29,68,-53,-66,-28,14,40,-1
1461661606451801,14,-43,80,60,50,14,5,-34
1461661606451801,-54,-6,-5,-113,-69,-17,-72,7
1461661606460809,-3,-96,-26,124,89,-21,-58,-34
1461661606460809,-42,-41,-33,-18,25,-6,-10,-21
1461661606466827,-12,-17,-23,-128,-81,24,74,14
1461661606466827,91,19,30,105,52,23,27,45
1461661606489839,-20,-39,24,-55,-22,-6,-58,17
1461661606489839,85,18,-13,30,15,-26,-96,-37
1461661606497853,-43,18,-20,-63,-43,-34,36,28
1461661606497853,-57,-41,-26,-68,-23,1,-4,-31
1461661606499849,-67,-56,12,15,-22,11,35,-3
1461661606499849,-22,-26,-3,100,31,-16,-39,21
1461661606511902,30,36,-3,-83,-27,-27,-48,-24
1461661606511902,100,39,10,-51,-32,-1,37,15
1461661606520865,27,96,32,85,62,31,46,1
1461661606520865,4,-17,53,-32,-6,31,56,5
1461661606526911,-58,40,-21,71,54,13,-2,-6
1461661606526911,-57,-29,-8,-62,-74,8,9,-28
1461661606535860,63,40,7,-21,22,7,-42,2
1461661606535860,10,-3,6,38,15,-49,3,21
1461661606549929,22,11,6,-73,-13,-6,-28,11
1461661606549929,3,23,29,-102,-28,60,105,38
1461661606572945,-59,-8,-61,-55,2,20,-98,-68
1461661606572945,-26,-38,13,110,5,-66,-35,11
1461661606573888,-26,-65,-11,6,-4,34,87,58
1461661606573888,95,41,33,-35,-47,11,-94,-20
1461661606580908,-31,30,8,71,37,-55,-67,-12
1461661606580908,-106,-64,-35,-35,20,5,-52,-57
1461661606586895,-128,-70,-30,-52,-20,-11,33,-44
1461661606586895,-20,-42,21,-52,-36,-7,44,19
1461661606595917,-12,-24,40,-38,-6,27,52,24
1461661606595917,122,87,-10,23,31,18,46,11
1461661606609924,87,53,40,-32,-31,24,92,33
1461661606609924,-76,-67,-30,-21,3,-10,-68,-37
1461661606618981,67,-9,-7,-25,-36,-47,-58,0
1461661606618981,15,86,-28,-54,-6,30,97,28
1461661606631987,-60,-21,23,28,21,37,-12,-26
1461661606631987,5,2,-36,124,66,-66,-78,-22
1461661606640934,14,35,5,-74,-45,-26,40,32
1461661606640934,-4,-6,18,-112,-41,50,73,26
1461661606647002,127,49,-19,40,6,19,-49,0
1461661606647002,-128,-15,-15,127,51,-55,-81,-34
1461661606655993,17,-128,-26,-17,1,-13,-10,-8
1461661606655993,98,59,-10,-54,-25,-4,4,15
1461661606670020,49,62,22,-52,-87,-23,-8,4
1461661606670020,20,-4,4,127,92,32,38,15
1461661606679009,-15,-31,18,30,29,27,40,1
1461661606679009,-21,42,-21,-99,-53,1,-11,11
1461661606692043,-86,-72,-4,51,21,-17,-17,-8
1461661606692043,67,-5,33,29,34,10,21,9
1461661606701025,4,114,1,4,-47,7,11,-3
1461661606701025,37,-66,39,24,-6,-13,-42,-17
1461661606707046,45,-8,-65,-53,16,10,-31,-6
1461661606707046,26,26,-10,-52,6,7,39,13
1461661606716037,-41,27,-10,20,-10,-7,-4,13
1461661606716037,-41,-95,0,26,-4,-42,-128,-86
1461661606730046,119,36,29,-8,-12,-41,-33,73
1461661606730046,91,76,-10,-26,-8,1,25,13
1461661606738063,-21,-52,-10,-34,-31,-27,-19,6
1461661606738063,75,66,23,-60,-42,-2,12,12
1461661606752065,-128,-128,-33,-35,12,17,-11,-42
1461661606752065,56,-44,32,18,50,41,44,-1
1461661606761067,0,-18,-25,15,-7,16,22,-2
1461661606761067,-66,-80,37,39,30,-11,5,-7
1461661606767072,20,37,48,113,78,12,17,-18
1461661606767072,-31,-6,-14,-100,-72,-27,-13,-19
1461661606777097,108,70,-18,-109,-33,17,24,-14
1461661606777097,-123,-10,-39,107,81,30,10,27
1461661606798155,-60,43,15,-57,-19,-13,2,7
1461661606798155,15,43,-10,53,36,26,17,1
1461661606800096,-66,61,-26,-53,-11,2,-25,-13
1461661606800096,100,127,-17,-67,-59,-25,43,38
1461661606812134,122,106,32,18,-2,-45,-34,11
1461661606812134,-61,-21,-17,8,-4,-25,-97,4
1461661606821111,-58,-24,-9,0,-5,17,18,-20
1461661606821111,-52,-9,6,19,-4,19,12,1
1461661606827134,-38,21,-16,-32,-18,-3,5,-20
1461661606827134,106,127,51,-96,-73,-11,46,-13
1461661606836120,-16,-91,-11,103,91,33,49,22
1461661606836120,-47,-89,-50,-92,-64,-17,-43,-40
1461661606849149,24,-90,81,112,122,37,16,-3
1461661606849149,-26,-61,7,18,16,-17,-11,-36
1461661606858172,-15,-8,-31,-80,-59,-23,-14,-9
1461661606858172,19,67,5,49,50,1,5,0
1461661606872185,23,58,-20,0,-18,-7,-18,14
1461661606872185,-28,26,15,8,-12,-1,51,44
1461661606881166,0,-54,16,-10,20,35,91,14
1461661606881166,88,63,1,-38,-13,26,-16,39
1461661606896174,-116,107,-34,-64,-56,-54,-101,-36
1461661606896174,-67,127,5,52,37,-23,-9,56
1461661606897163,82,127,10,0,3,3,72,27
1461661606897163,-32,44,4,-3,-17,-8,-19,-18
1461661606909172,70,-28,-3,0,-7,-52,-70,16
1461661606909172,-39,-128,-17,1,5,74,42,-25
1461661606918178,26,-103,-15,-42,-36,1,-23,-27
1461661606918178,-25,-124,19,-59,-26,7,17,-29
1461661606932202,-17,-121,-5,46,47,36,52,-5
1461661606932202,-14,-124,-27,-107,-39,-46,-40,-44
1461661606941208,28,-79,48,107,46,-6,-31,-27
1461661606941208,-6,-25,9,35,38,12,1,1
1461661606956217,-58,-65,-17,-117,-63,-22,6,-10
1461661606956217,16,32,-33,7,-2,-5,-7,-17
1461661606957209,67,127,21,24,-20,-10,-7,31
1461661606957209,-53,107,-11,10,-5,-5,47,38
1461661606978326,51,120,-14,-1,-7,-14,11,14
1461661606978326,10,62,0,-4,-3,25,25,50
1461661606980302,-32,-37,2,-23,9,-46,-59,8
1461661606980302,-62,-128,-2,35,13,6,-57,-14
1461661606992334,9,-128,-17,-34,-27,4,43,6
1461661606992334,28,-122,-3,0,-8,-3,19,36
1461661607001314,-5,-107,-5,5,16,66,10,6
1461661607001314,27,-112,7,18,9,-11,-5,-4
1461661607016364,-23,-96,-44,-107,-69,9,-8,-26
1461661607016364,-3,-75,47,112,75,-17,-17,-25
1461661607017311,-16,-49,-1,-28,0,-28,-16,-5
1461661607017311,2,-68,29,80,28,1,-6,-22
1461661607029379,-6,-118,-54,2,11,-1,-2,-22
1461661607029379,-8,-102,13,7,-5,-9,-13,-24
1461661607038326,-30,-8,-41,-31,-17,-5,-8,-20
1461661607038326,40,66,4,-37,-23,-8,-4,-9
1461661607052348,-53,36,27,25,-2,8,15,15
1461661607052348,-3,-21,-33,-34,-8,1,23,11
1461661607061355,-18,-19,-1,11,1,11,-18,18
1461661607061355,-27,-46,-9,-26,-11,-36,0,11
1461661607076370,13,3,22,7,-2,-16,-36,0
1461661607076370,3,40,-3,-14,-9,56,26,6
1461661607077355,52,20,14,-1,-6,-22,-21,11
1461661607077355,13,-32,-13,-2,-3,10,26,7
1461661607089374,19,-63,8,-1,6,22,16,2
1461661607089374,-16,-100,-1,3,7,-11,-15,-11
1461661607098383,-15,-84,-16,-61,-37,-6,10,-2
1461661607098383,-5,-81,24,57,84,25,6,-6
1461661607112439,5,-50,24,49,23,-5,-8,-18
1461661607112439,3,-20,-9,-7,-1,-9,-15,-14
1461661607121387,-9,-23,0,9,-5,-12,1,-4
1461661607121387,5,-13,-25,-27,-24,-8,-18,-20
1461661607135485,15,33,6,-14,-3,12,11,2
1461661607135485,10,75,7,8,3,-13,4,25
1461661607137486,-22,-3,-7,-8,-10,8,-41,-3
1461661607137486,-12,84,-18,-28,-18,-7,3,-7
1461661607149513,-25,91,6,6,0,13,33,11
1461661607149513,-8,64,-8,-14,-10,-52,-44,-2
1461661607158500,4,29,10,14,12,69,77,26
1461661607158500,9,-20,4,-1,-1,28,-18,7
1461661607172525,20,-34,0,14,0,3,-17,-6
1461661607172525,4,-48,6,-24,-17,-16,-17,-10
1461661607181555,1,-31,10,-5,5,-28,-12,-7
1461661607181555,0,-53,-24,3,15,7,15,-6
1461661607195587,9,-26,-1,-63,-32,-2,6,-6
1461661607195587,1,-28,9,76,61,14,-8,-8
1461661607197529,-10,-24,-22,10,6,-18,-9,-18
1461661607197529,-9,-8,6,6,-14,-2,7,-10
1461661607209536,0,-12,-15,-12,-6,-14,-13,-12
1461661607209536,-6,2,1,-22,-20,-24,-1,-10
1461661607218543,-3,14,12,2,-6,14,-3,-6
1461661607218543,8,17,-8,-16,-8,2,6,16
1461661607232569,31,35,-2,11,9,4,6,24
1461661607232569,-16,23,7,-4,-7,8,6,17
1461661607241560,-16,64,-3,9,6,-9,-9,19
1461661607241560,12,80,0,-11,-13,3,0,14
1461661607255594,-8,59,5,8,8,11,-4,19
1461661607255594,5,36,-5,-5,-3,2,20,15
1461661607257571,1,-17,-5,-6,1,28,-2,4
1461661607257571,0,-1,25,-4,-6,-7,4,15
1461661607269604,9,-21,20,23,12,13,11,-10
1461661607269604,-2,-32,-80,-15,-6,-7,-13,-14
1461661607278606,3,3,8,8,1,-31,-8,-6
1461661607278606,-1,-13,-29,-25,-7,-4,5,-7
1461661607291609,-6,-8,19,15,4,-3,-1,-33
1461661607291609,-6,-10,14,-16,-11,-4,-9,-27
1461661607300603,1,-28,-2,-7,1,-8,0,-21
1461661607300603,0,-15,-5,18,4,2,-2,-13
1461661607315627,-3,-10,-12,1,-4,-21,1,-4
1461661607315627,-3,-3,-4,-3,-3,22,0,-8
1461661607317613,3,5,-14,1,-2,-1,0,-5
1461661607317613,1,9,4,-8,-4,-37,-10,-4
1461661607329682,-8,-10,-16,-5,-2,24,1,-2
1461661607329682,1,27,12,-2,0,10,6,0
1461661607344635,0,28,19,1,5,-17,-12,1
1461661607344635,-6,7,-2,2,-3,17,-1,-4
1461661607351653,-1,-2,-3,2,2,-7,5,3
1461661607351653,-2,5,35,0,0,13,5,5
1461661607360678,0,9,15,1,-3,-13,-7,3
1461661607360678,-5,-16,5,-2,-2,-11,-6,1
1461661607375713,-5,-9,-34,1,1,5,8,4
1461661607375713,3,-2,-2,5,0,-3,-1,-3
1461661607377657,-2,4,-1,-3,-3,-7,-4,-8
1461661607377657,2,-3,-1,-8,-3,-4,-4,-8
1461661607389676,6,25,48,7,9,6,5,2
1461661607389676,-12,-20,-10,-1,-6,-5,0,-2
1461661607398703,1,15,13,-3,-9,-16,-19,-45
1461661607398703,10,10,27,9,3,3,-1,-6
1461661607411680,-8,-22,-62,-13,-1,-2,-1,-13
1461661607411680,-2,9,14,0,5,5,2,-10
1461661607420687,1,5,-3,10,3,-5,2,-2
1461661607420687,-1,-4,-24,-5,-2,1,-4,-6
1461661607435701,6,20,26,6,1,-6,1,13
1461661607435701,-5,25,-7,-7,-3,14,3,-4
1461661607437717,0,14,19,-2,-6,-7,-3,4
1461661607437717,4,13,4,6,-1,3,-1,-1
1461661607449724,-4,-30,-18,-4,3,6,-1,7
1461661607449724,-11,-29,-49,-12,-4,-2,-4,1
1461661607458731,1,-6,-15,-6,-6,-2,-2,4
1461661607458731,5,4,1,11,1,-11,-2,7
1461661607471785,3,4,23,-4,-2,3,3,7
1461661607471785,-1,6,13,11,5,1,-4,-6
1461661607480831,-2,-14,1,-9,-6,-3,-1,-1
1461661607480831,0,4,22,9,1,-2,1,3
1461661607495858,0,6,4,8,4,0,4,3
1461661607495858,-8,-12,-9,-18,-9,-6,-6,-8
1461661607497859,6,20,-2,2,1,1,2,4
1461661607497859,5,14,16,-1,1,-1,-1,7
1461661607509867,-9,-8,-26,-5,-1,6,3,2
1461661607509867,1,10,20,6,-3,-17,-9,-1
1461661607518860,-2,-6,-8,-1,-4,7,6,8
1461661607518860,-1,-20,-30,-8,-3,-3,-2,18
1461661607531928,2,11,29,3,3,-4,-13,-27
1461661607531928,-5,-16,-24,-7,-1,-1,0,3
1461661607540874,4,8,-1,-1,-3,6,-2,3
1461661607540874,0,-3,-27,-2,1,0,1,3
1461661607555900,3,29,39,2,0,-6,0,14
1461661607555900,-4,6,-16,-4,-5,-2,-5,-3
1461661607557901,-3,-8,-5,2,-3,-4,-3,-3
1461661607557901,2,-6,-21,-15,5,1,2,1
1461661607569955,1,-8,28,5,-1,1,3,4
1461661607569955,0,9,42,2,-1,1,-1,-10
1461661607578900,-1,-3,-11,4,-2,-9,-1,12
1461661607578900,3,-2,-4,1,0,4,0,-6
1461661607591913,-2,-21,-62,-18,-2,-4,-1,0
1461661607591913,2,1,19,-1,-2,2,0,2
1461661607600916,-6,-11,-15,-4,-3,-3,-5,-6
1461661607600916,-3,-10,-11,4,-2,-6,-5,-4
1461661607615984,2,10,22,5,3,12,6,11
1461661607615984,-8,-16,-28,-6,-3,1,2,-1
1461661607617941,6,-4,-4,0,1,4,-3,-7
1461661607617941,-5,-3,17,-2,-5,-3,1,4
1461661607638958,3,2,31,8,1,-4,-2,6
1461661607638958,1,2,-13,-5,1,4,7,19
1461661607639959,2,0,-28,-7,-3,-6,-10,-11
1461661607639959,1,3,8,-3,-1,0,-1,-3
1461661607651964,-2,-3,5,4,-1,-6,0,-2
1461661607651964,0,11,8,2,3,-1,-2,-5
1461661607660959,-2,-3,2,-6,-3,-2,4,4
1461661607660959,5,23,64,3,-2,-2,-1,-1
1461661607676026,-9,-12,-82,-10,-5,-6,-2,-7
1461661607676026,-5,0,14,4,0,12,0,0
1461661607678024,6,25,71,1,-1,3,3,2
1461661607678024,-1,-6,-64,-4,-2,-3,-4,-5
1461661607689977,1,-5,14,-3,0,-3,-5,3
1461661607689977,0,5,-7,1,-3,-28,3,-9
1461661607699001,-12,-26,-4,-4,-4,4,-48,-7
1461661607699001,14,19,38,7,6,34,58,20
1461661607712054,-1,-3,-11,-1,-2,5,7,3
1461661607712054,2,0,-2,-2,-1,-2,-2,1
1461661607721002,4,1,-6,0,-2,-20,4,2
1461661607721002,-5,-4,-11,-2,-2,-5,-17,10
1461661607736022,-7,-2,4,1,0,8,-13,-29
1461661607736022,-3,-8,29,-1,-3,-3,-2,-7
1461661607742026,0,-10,-30,-4,-3,-5,2,-1
1461661607742026,-2,-15,-8,2,-3,-6,-10,-2
1461661607750050,0,-10,-17,-25,-10,-4,8,11
1461661607750050,2,8,11,7,11,5,-13,-3
1461661607759027,1,4,-7,1,2,3,10,2
1461661607759027,-4,-4,-8,-3,-1,-3,-2,-7
1461661607772064,0,10,17,5,-1,-7,-4,-4
1461661607772064,-3,-12,-17,-12,-8,0,-4,-4
1461661607781056,-5,-1,-2,3,1,3,-1,1
1461661607781056,-2,3,13,-2,-5,-7,-7,-7
1461661607795053,-1,5,12,7,4,1,7,5
1461661607795053,2,6,-7,-3,-2,3,8,6
1461661607802059,-3,-7,-26,-2,-1,-4,11,0
1461661607802059,-1,6,35,5,0,-2,-13,-8
1461661607810078,-2,-14,-26,2,3,-2,-7,2
1461661607810078,0,-3,-2,3,0,3,2,3
1461661607819082,-1,3,-17,-15,-6,1,3,0
1461661607819082,-3,-6,-2,2,2,-3,-7,-5
1461661607832136,3,8,29,10,5,2,5,3
1461661607832136,-1,-4,-25,-11,-6,-4,-7,-7
1461661607841085,3,7,9,1,-6,-4,-2,0
1461661607841085,-4,-13,-11,-22,-8,-4,-4,-5
1461661607855106,-1,-12,-5,18,16,8,5,2
1461661607855106,6,38,21,13,3,-3,-6,0
1461661607862128,-2,-15,14,6,1,2,1,-4
1461661607862128,-4,0,-32,-11,-6,-3,3,-1
1461661607878140,-2,10,3,-10,-9,-4,-4,-3
1461661607878140,-4,-5,25,4,-2,-2,-4,-1
1461661607880113,3,10,-40,-11,-1,2,4,-1
1461661607880113,1,-6,14,15,6,-2,7,11
1461661607892149,-5,-15,-19,-8,-3,-4,-25,-15
1461661607892149,1,2,7,0,-2,2,12,-6
1461661607901127,3,9,42,4,1,-2,-9,1
1461661607901127,0,-6,14,5,1,-3,0,-6
1461661607915156,-4,-4,-37,-8,-5,-2,9,-1
1461661607915156,1,-7,-12,-4,-3,4,-1,13
1461661607922161,1,1,-11,5,3,0,5,-3
1461661607922161,-2,-3,32,1,2,-2,-11,2
1461661607938164,1,12,40,-2,-2,-1,1,5
1461661607938164,-5,-12,-25,-7,-2,1,1,-7
1461661607940166,-1,-6,-9,-5,-3,-1,2,2
1461661607940166,0,2,-9,-3,-6,-3,-1,-5
1461661607952174,-3,0,4,8,-3,-2,0,-6
1461661607952174,-8,-9,3,-12,-2,-1,-4,-5
1461661607961181,-1,-5,-7,-3,0,2,-1,1
1461661607961181,0,-2,-15,-8,-3,-3,-3,-6
1461661607975190,2,-2,8,3,-2,-4,2,1
1461661607975190,-1,0,-24,-2,-3,-2,-5,-1
1461661607982195,1,17,23,2,4,2,5,3
1461661607982195,-2,-6,-5,3,4,1,2,1
1461661607998234,-4,-7,-19,-10,-4,-5,-2,3
1461661607998234,3,10,42,11,-4,-2,2,14
1461661608000210,-4,-3,-12,-14,-7,-5,-6,-9
1461661608000210,1,3,-15,1,2,3,1,-5
1461661608012244,5,5,-3,0,1,-1,0,5
1461661608012244,-5,-12,-4,-3,0,-2,-17,-7
1461661608021223,-1,6,28,8,1,0,19,9
1461661608021223,1,-3,-35,5,3,1,-5,2
1461661608035251,-3,-3,15,-2,-1,2,-1,-1
1461661608035251,-2,1,-22,-1,2,-1,2,-1
1461661608042256,-10,-14,16,-10,-5,-3,-7,-5
1461661608042256,-1,-1,-6,8,3,0,-3,0
1461661608058268,1,2,9,5,5,1,3,1
1461661608058268,-1,-2,-6,-1,-2,-4,-4,-5
1461661608060240,2,0,3,3,-1,0,-4,-2
1461661608060240,-3,-4,7,2,0,-1,1,-3
1461661608072276,-1,2,-8,-4,-1,0,-2,1
1461661608072276,-4,-7,-3,-6,-4,0,2,-5
1461661608081270,4,3,-5,6,4,0,-3,-2
1461661608081270,1,1,6,-5,-2,-1,-1,1
1461661608095279,0,3,-12,-2,-4,0,-2,0
1461661608095279,2,7,12,2,-2,-2,-2,-5
1461661608102269,-2,-13,-37,0,1,1,1,2
1461661608102269,-3,-9,-9,-8,-6,-1,-3,-3
1461661608118293,-5,-9,1,-2,1,-2,0,-3
1461661608118293,5,19,35,8,0,-2,1,-2
1461661608120295,2,-15,-31,4,2,1,-2,-1
1461661608120295,2,-4,-13,-1,-1,-3,-2,1
1461661608132329,1,3,-23,-6,-1,-1,-2,-1
1461661608132329,-8,-14,-10,-10,-8,-2,0,-2
1461661608141306,0,18,20,10,4,0,-2,0
1461661608141306,-2,-1,11,1,4,0,0,1
1461661608155335,-4,-7,-1,-2,-1,-2,-1,-2
1461661608155335,-1,-2,-9,-3,1,-1,-3,-2
1461661608162340,-2,-12,5,-3,-3,-1,0,0
1461661608162340,0,-1,-10,-4,-3,-2,1,0
1461661608178339,0,0,9,2,2,0,-1,0
1461661608178339,-2,4,13,-2,-2,-1,-1,1
1461661608180325,-2,-5,-20,-7,-3,1,2,5
1461661608180325,-4,-14,-5,2,-1,-2,-10,-11
1461661608192349,3,-2,12,0,2,2,6,14
1461661608192349,2,-7,-6,-2,-1,-5,-8,-10
1461661608201338,2,12,0,3,-1,-3,3,1
1461661608201338,-1,-2,9,1,0,0,1,2
1461661608215407,-1,-4,-9,-4,-1,-2,-3,-4
1461661608215407,-3,-4,22,-3,-2,1,2,6
1461661608222413,1,5,7,-3,-2,-2,-3,-2
1461661608222413,2,5,-20,7,7,2,2,-1
1461661608238378,-1,2,13,0,1,0,-1,0
1461661608238378,-3,-11,-26,-1,-4,-2,1,0
1461661608240384,-1,10,28,2,0,-2,-4,-5
1461661608240384,2,6,16,-2,-4,-1,1,2
1461661608252375,-5,2,-10,0,0,-1,-1,-6
1461661608252375,-1,-3,-1,0,2,1,-1,-4
1461661608261382,-1,0,-8,-4,-4,-2,-4,-5
1461661608261382,2,7,3,-3,-4,2,3,-2
1461661608275458,-2,-10,-5,1,-1,-3,-4,-4
1461661608275458,1,-2,-6,-3,-1,-2,0,2
1461661608282462,-2,-7,-27,-3,-2,0,2,2
1461661608282462,0,1,14,0,-1,-2,0,3
1461661608298429,-1,4,17,3,-5,-3,-3,-7
1461661608298429,0,2,6,-2,0,1,0,-1
1461661608300409,-1,-4,-13,1,2,-1,-1,1
1461661608300409,2,10,15,2,-1,-1,-4,-1
1461661608312440,-2,-13,-38,-5,-3,0,5,14
1461661608312440,-4,-2,3,2,2,-2,-11,-18
1461661608321437,-1,-1,-1,-4,-2,-3,-1,-4
1461661608321437,-3,-2,-6,-1,-2,-1,-3,-4
1461661608335434,1,5,32,0,-1,1,-3,-5
1461661608335434,-4,-5,-24,3,0,0,3,7
1461661608342479,0,0,11,-4,-3,0,0,-2
1461661608342479,-1,-3,1,-3,-2,0,0,1
1461661608358491,1,7,-6,2,3,-1,0,5
1461661608358491,1,0,-4,-2,-3,1,3,0
1461661608360452,-3,-9,0,-1,-1,-1,-2,-5
1461661608360452,0,-1,-2,-6,-3,-2,1,3
1461661608372499,-2,-2,-1,-3,-3,0,-2,-6
1461661608372499,-2,-10,-15,-8,-3,-2,-2,-2
1461661608381496,2,5,20,3,-2,0,0,1
1461661608381496,3,3,19,8,3,2,1,2
1461661608395506,-4,-10,-45,-2,1,-1,-2,-7
1461661608395506,-4,0,4,1,-1,-3,-1,-1
1461661608402517,3,4,-8,-4,-2,-3,1,4
1461661608402517,0,4,6,-9,-6,-4,-1,-2
1461661608418492,-1,7,20,3,-2,-1,-1,-4
1461661608418492,-1,-6,-32,-10,-4,-1,0,1
1461661608420510,-3,-6,-7,-3,-4,-2,-3,-2
1461661608420510,0,-5,-8,4,6,3,0,-2
1461661608432518,-1,-6,10,-2,-3,-3,-2,-3
1461661608432518,-1,0,-2,1,2,-2,-1,0
1461661608441522,2,2,8,-1,-3,-3,-2,-2
1461661608441522,-5,-12,-19,-6,-2,0,1,-2
1461661608455577,-5,-2,20,-4,-3,-1,-1,0
1461661608455577,-1,0,17,2,-1,-2,-2,0
1461661608462575,-1,-10,-17,-2,2,-1,0,-2
1461661608462575,1,7,-1,3,-1,-3,-2,0
1461661608478597,3,1,-15,-7,-1,1,2,-1
1461661608478597,-2,2,1,4,1,1,0,-1
1461661608480538,-4,-8,-16,0,-1,-1,0,-2
1461661608480538,2,5,-13,-2,-3,-2,0,1
1461661608492546,-2,-8,-6,-1,1,-1,-2,-2
1461661608492546,0,7,6,-3,-4,-2,1,-3
1461661608501552,-1,1,13,2,-1,-1,-1,3
1461661608501552,-2,-5,-12,2,4,0,-1,0
1461661608515560,-1,1,11,0,0,-1,-2,-2
1461661608515560,-4,-12,-22,0,2,-1,-2,0
1461661608522566,-1,6,26,-2,-1,2,0,1
1461661608522566,0,4,10,-2,-5,-2,-1,-1
1461661608538576,-3,-3,-8,-1,-3,0,-1,-1
1461661608538576,3,-1,6,1,-1,-1,0,2
1461661608539577,-3,-6,2,-5,-2,0,0,-2
1461661608539577,0,3,-4,1,0,-1,0,-1
1461661608551586,-4,1,3,-1,-1,-3,-2,-3
1461661608551586,-3,-1,17,-6,-3,-2,-5,-4
1461661608560592,1,-13,-15,5,1,0,-1,-1
1461661608560592,0,-1,-2,-3,-3,-1,-1,-1
1461661608575604,-2,4,0,2,0,-2,0,2
1461661608575604,-1,-5,-6,2,2,5,1,2
1461661608581606,2,8,5,2,1,1,1,-1
1461661608581606,-1,-4,8,1,0,0,2,-1
1461661608598625,2,-1,-7,-3,-3,-4,-3,-2
1461661608598625,1,5,1,-6,-2,1,-1,2
1461661608600622,0,3,13,6,2,-1,0,1
1461661608600622,-1,-3,-2,4,1,0,1,0
1461661608612634,-2,-3,-18,-4,-5,-1,0,-2
1461661608612634,-1,0,-15,-1,-2,-1,-1,-1
1461661608620641,2,6,-4,-4,-3,-2,-1,-2
1461661608620641,-2,-6,-7,-1,0,-1,-2,0
1461661608635671,1,-4,12,3,1,0,-1,0
1461661608635671,-1,2,7,-1,-1,-2,-1,-1
1461661608641679,-3,0,2,0,-2,-1,-3,-2
1461661608641679,-3,-1,6,-4,-2,0,-1,0
1461661608658683,-1,-7,-7,-2,-1,-1,-3,-3
1461661608658683,-2,8,10,1,1,-1,0,-4
1461661608659663,-3,0,-5,-1,2,0,-4,-3
1461661608659663,-3,-12,15,-3,-3,-2,-1,-3
1461661608671730,-1,-7,-3,-1,2,0,7,18
1461661608671730,-5,-4,-16,0,-1,-4,-17,-37
1461661608680736,0,8,19,0,-3,-3,-1,-3
1461661608680736,-1,-13,-24,-4,1,2,0,-4
1461661608695712,-9,-6,-17,-4,-1,-2,-3,-4
1461661608695712,1,-3,0,-1,-1,0,9,20
1461661608701699,-4,-4,3,0,-1,-2,-3,-9
1461661608701699,6,14,9,1,2,4,-1,2
1461661608717706,3,-2,7,2,1,-1,-3,-5
1461661608717706,2,4,-5,0,-2,0,0,5
1461661608724768,3,1,-21,-3,0,-1,1,4
1461661608724768,-3,-4,8,0,-3,-2,0,2
1461661608731772,2,3,5,-1,-3,-1,-3,-5
1461661608731772,1,-5,-2,0,-1,-3,1,3
1461661608740722,-1,-3,-9,-1,1,3,2,4
1461661608740722,4,16,9,4,0,-1,-1,0
1461661608754744,-6,-23,7,-2,-3,0,-3,-3
1461661608754744,0,2,-12,-4,-2,-2,0,2
1461661608763751,-2,-7,-6,-2,-3,-1,0,0
1461661608763751,-4,8,3,-4,-2,-3,-2,-1
1461661608777815,-2,7,2,0,-1,-4,-1,-6
1461661608777815,0,-4,-2,1,3,0,-1,3
1461661608784752,1,-6,1,-3,-2,-1,6,12
1461661608784752,-5,1,-6,-1,-1,-3,2,1
1461661608791780,4,5,-14,-2,0,-1,-8,-15
1461661608791780,-7,-5,30,1,-1,-1,-1,-4
1461661608800770,0,1,-40,0,2,0,-2,-6
1461661608800770,-1,-6,23,1,-1,0,4,12
1461661608814801,1,-6,-27,-2,-2,-3,3,8
1461661608814801,-1,1,-6,1,1,1,-3,-6
1461661608823780,-6,-11,-2,-7,-4,-3,0,-3
1461661608823780,4,1,3,-1,0,0,-2,8
1461661608837804,-2,3,-2,-2,-2,-1,-2,-2
1461661608837804,3,4,12,3,0,-3,-1,5
1461661608844809,3,8,9,-5,-3,0,-6,-10
1461661608844809,1,-1,-11,1,0,0,-3,-7
1461661608851799,-4,-2,-1,-1,-2,-2,-2,-5
1461661608851799,2,0,8,-3,-2,-4,5,8
1461661608860822,2,6,13,2,1,-1,0,-1
1461661608860822,-2,6,-15,-6,-2,-2,-4,-7
1461661608874816,-1,0,18,2,-1,1,2,7
1461661608874816,-5,-17,-18,-3,-1,-2,0,-1
1461661608883822,-2,-6,-4,-1,0,2,-3,-1
1461661608883822,0,2,-8,-4,-1,1,-1,-6
1461661608897857,-2,-6,1,-1,0,0,-3,1
1461661608897857,1,13,9,2,-1,0,-3,-3
1461661608904841,0,-5,9,1,1,-1,0,3
1461661608904841,0,-11,-22,-4,-2,-3,4,9
1461661608920853,-2,6,-8,-2,-1,-4,-1,-4
1461661608920853,-5,-8,6,-1,-2,1,0,-1
1461661608922850,0,13,21,2,1,-1,6,-9
1461661608922850,3,2,-9,-2,-3,-3,-8,-12
1461661608934858,-2,1,23,-1,-3,0,1,6
1461661608934858,2,1,-25,1,2,2,-2,-2
1461661608943863,5,-6,8,5,2,3,3,7
1461661608943863,-14,-28,-25,-5,-2,-2,2,-1
1461661608957872,5,17,-1,-5,-3,-1,-4,-6
1461661608957872,-8,-15,7,0,0,-1,3,-4
1461661608964877,-8,-20,-7,-4,-3,-3,-1,14
1461661608964877,4,14,24,1,-1,0,-7,-14
1461661608979892,1,1,12,4,0,1,0,3
1461661608979892,4,20,-6,-2,-2,-1,1,2
1461661608988908,0,-8,-13,1,0,-2,-1,2
1461661608988908,0,-1,7,-4,-2,-1,0,2
1461661608994957,-5,-8,-23,0,1,-1,0,-7
1461661608994957,0,-2,10,-3,-2,-2,-5,3
1461661609003918,1,12,-5,-10,-9,-4,-5,-7
1461661609003918,1,-4,7,19,11,2,2,5
1461661609017936,-4,2,-5,-5,-2,-2,-2,-8
1461661609017936,3,-1,-6,2,6,2,0,0
1461661609024985,-3,-2,12,0,-2,-1,-2,-3
1461661609024985,-4,1,1,-11,-6,-3,-2,-2
1461661609041067,0,-11,-1,1,-4,-3,2,1
1461661609041067,-1,3,-2,-3,-1,1,0,1
1461661609043043,-3,0,2,0,-3,-1,-2,-2
1461661609043043,0,2,1,0,0,-2,-1,-1
1461661609055051,1,-1,-14,0,-1,-1,-1,-1
1461661609055051,-3,-7,12,-8,-6,-2,0,-2
1461661609071063,-1,9,-23,-12,-4,-2,0,-4
1461661609071063,-2,1,11,9,-4,-3,-1,-3
1461661609078137,-1,1,3,-1,4,0,-3,-1
1461661609078137,0,1,-2,-18,-6,-5,-2,-4
1461661609085072,-5,-5,-7,11,1,-1,-4,-4
1461661609085072,1,1,-7,15,12,3,1,0
1461661609101108,-4,-7,0,-3,-5,-1,-1,-4
1461661609101108,1,3,5,9,7,4,0,-2
1461661609103090,-1,-6,-1,-15,-8,-5,-1,-3
1461661609103090,-1,0,-6,-8,-12,-4,-1,-2
1461661609115097,-3,-7,-16,-5,2,-1,0,2
1461661609115097,0,2,-4,-2,-5,0,-2,1
1461661609124100,-1,9,1,-2,2,-1,-2,-1
1461661609124100,-1,3,9,-7,-4,-1,-2,0
1461661609146117,-1,-10,-31,-2,1,0,0,1
1461661609146117,-2,-2,0,-7,-4,-3,0,0
1461661609147156,0,2,14,7,3,1,-1,0
1461661609147156,-2,-2,0,-3,-1,0,1,2
1461661609161139,5,5,8,-5,-3,-2,-1,-1
1461661609161139,-9,3,-8,2,-6,-4,-3,-1
1461661609162127,-4,-21,-6,8,12,3,-1,-1
1461661609162127,1,-9,-4,-36,-10,-4,-1,1
1461661609174175,-9,-4,4,-2,-11,-4,-6,-4
1461661609174175,5,6,14,41,16,7,3,2
1461661609183180,5,10,1,-1,1,-2,0,2
1461661609183180,1,2,-18,13,3,1,0,3
1461661609198223,-11,-21,8,-18,-7,-4,-3,-3
1461661609198223,-1,-1,-6,-4,-3,-4,-1,-2
1461661609205161,-4,-1,-6,-4,-3,0,0,1
1461661609205161,0,-7,4,-7,-3,-2,-1,0
1461661609221183,7,16,14,3,0,-1,1,3
1461661609221183,-5,-10,-5,-5,-3,-2,-1,-3
1461661609222183,4,1,10,-3,-2,0,0,1
1461661609222183,-4,-2,-32,-5,-4,-4,-3,-4
1461661609234178,0,6,7,12,6,3,2,-1
1461661609234178,-2,-6,10,3,1,1,-1,-3
1461661609243198,2,5,-9,-17,-9,-4,-4,-1
1461661609243198,2,3,26,20,-11,-3,-5,-2
1461661609266259,-2,-7,-14,3,16,6,3,2
1461661609266259,3,10,10,-6,5,0,1,2
1461661609267200,-1,3,-6,-11,-5,0,-2,-2
1461661609267200,0,0,8,7,4,7,11,2
1461661609281269,-1,-15,-7,-9,0,2,-14,-3
1461661609281269,-3,-10,-9,16,4,-8,-10,-1
1461661609282215,5,9,14,27,12,4,16,6
1461661609282215,3,11,13,-11,-2,1,2,6
1461661609294234,-6,-14,2,-2,-9,-4,1,0
1461661609294234,-1,-3,-16,-22,-10,-10,-14,-8
1461661609303227,-1,2,-11,-15,-14,-7,-4,-3
1461661609303227,-1,-16,3,3,9,3,0,2
1461661609318268,1,18,4,-4,0,3,6,9
1461661609318268,0,-11,-21,-7,-6,-2,-2,2
1461661609325248,8,15,15,-42,-25,-7,-1,1
1461661609325248,-1,-5,10,36,18,3,-1,0
1461661609341255,-1,-13,-8,7,1,-3,-1,-3
1461661609341255,5,7,-6,-11,-7,4,1,-1
1461661609342256,4,7,0,3,18,20,53,11
1461661609342256,-2,-21,-15,-46,-22,-7,-30,-11
1461661609354265,-5,18,16,-14,-15,-15,-24,-23
1461661609354265,-1,0,4,46,16,-5,-29,-9
1461661609363274,-15,-6,-3,22,-2,-2,3,-6
1461661609363274,8,-11,-10,2,24,13,25,17
1461661609378283,14,5,-9,6,2,8,14,8
1461661609378283,-28,5,-2,-12,-12,-2,8,-5
1461661609384284,13,-10,11,-17,-8,-11,-51,-6
1461661609384284,13,-1,-32,-3,-6,-18,-7,12
1461661609401325,-16,-14,5,-5,-25,-26,-27,-3
1461661609401325,22,34,26,-48,-18,-2,10,10
1461661609402298,12,-24,2,25,11,10,2,4
1461661609402298,-30,-26,-21,69,44,20,-2,-10
1461661609414334,13,56,-6,6,14,9,31,12
1461661609414334,-29,-32,13,-21,-40,-8,-11,-16
1461661609431317,0,34,-1,68,61,22,-3,-15
1461661609431317,4,28,33,19,-10,-5,7,-24
1461661609437337,11,3,-1,25,19,31,19,-1
1461661609437337,-11,19,-13,-24,8,9,4,-7
1461661609461397,0,-2,-19,-59,-57,-58,-43,-10
1461661609461397,-23,-4,17,-9,-8,-1,29,-7
1461661609462342,2,-22,3,2,11,19,-1,-9
1461661609462342,15,4,-14,1,10,9,10,-11
1461661609464342,-32,-22,-1,-28,-32,-34,-67,-23
1461661609464342,-12,11,-6,-106,-39,-19,-13,3
1461661609474405,50,-39,-6,83,68,24,71,33
1461661609474405,4,-37,-2,68,29,13,-22,0
1461661609483356,-27,-90,5,-72,-43,-27,-19,-31
1461661609483356,-13,-60,18,94,33,-10,-25,-32
1461661609498366,-15,-38,-6,-18,-11,13,29,-11
1461661609498366,32,5,15,-21,22,17,25,10
1461661609504398,-16,-17,-27,42,-1,25,58,-13
1461661609504398,-18,-41,-53,-30,6,0,23,-3
1461661609521397,30,18,-40,-80,-35,-14,18,4
1461661609521397,2,16,9,90,48,8,-65,-6
1461661609522384,-19,35,5,-50,-38,-34,-59,-19
1461661609522384,-1,13,-11,-12,-24,-5,30,34
1461661609534406,24,21,18,28,11,17,1,73
1461661609534406,4,-89,-34,-79,-53,-20,-18,25
1461661609543398,12,63,59,9,12,-8,-27,8
1461661609543398,9,6,-63,-17,-12,10,4,2
1461661609557447,-24,1,-9,-54,-25,-30,-28,-3
1461661609557447,-2,41,-2,-49,-27,-11,7,18
1461661609564451,5,20,30,26,2,13,10,-4
1461661609564451,26,31,38,114,89,15,8,-6
1461661609581422,-13,-3,40,14,-17,-4,-27,-8
1461661609581422,-5,3,-83,-72,-38,-10,25,-6
1461661609582439,-7,39,-8,76,39,43,57,10
1461661609582439,21,26,-3,14,18,23,7,22
1461661609594432,-7,-23,43,87,14,-27,-52,-28
1461661609594432,1,99,28,19,6,-1,24,-9
1461661609603438,-44,-80,-94,-41,-6,1,-42,-10
1461661609603438,6,19,-33,-122,-66,-50,-39,-13
1461661609617448,-35,33,-14,-79,-3,-8,-24,-9
1461661609617448,25,-31,65,58,26,25,107,47
1461661609624472,-21,14,-39,35,22,33,20,-6
1461661609624472,-1,-49,30,-10,-9,-2,-39,-17
1461661609640479,-13,0,16,-38,-22,-38,-92,-39
1461661609640479,25,13,8,-57,-36,-35,3,-8
1461661609647528,-31,50,99,9,21,28,87,28
1461661609647528,-14,-49,-19,62,16,20,0,-1
1461661609654488,28,-11,-25,-95,-64,-12,16,-10
1461661609654488,-6,47,52,60,65,38,-31,5
1461661609663484,-11,-3,-17,-110,-14,-23,14,-7
1461661609663484,55,71,30,7,-12,6,18,20
1461661609677492,16,14,-5,-21,-15,-9,1,1
1461661609677492,33,-34,10,14,-41,-25,-66,-21
1461661609684510,-12,-20,77,53,14,-14,25,1
1461661609684510,-67,-49,-47,-103,-39,14,72,29
1461661609700566,-63,-61,-83,-40,-9,11,11,-35
1461661609700566,46,60,85,76,91,28,-8,20
1461661609707513,54,-28,-90,-57,-7,-8,-49,37
1461661609707513,-50,-40,17,-80,-57,-48,-78,-61
1461661609714546,51,39,5,32,0,3,55,36
1461661609714546,-128,-103,-50,-108,-36,-12,-57,-43
1461661609723530,25,-33,46,66,-8,-30,-14,-17
1461661609723530,44,83,56,75,56,34,17,18
1461661609737549,-23,-38,-23,7,1,6,22,15
1461661609737549,-44,-23,-72,-44,0,21,45,-8
1461661609744554,50,-69,-18,60,26,6,-19,9
1461661609744554,16,-4,-2,-77,-58,-58,-75,-32
1461661609768557,53,27,100,23,-4,38,96,48
1461661609768557,-22,1,-32,111,72,55,0,3
1461661609770558,-14,-7,26,-105,-44,-40,-63,-31
1461661609770558,-40,17,6,34,27,-24,-44,-30
1461661609782625,-12,-46,-60,-88,-11,40,68,18
1461661609782625,127,46,52,39,-43,-27,16,39
1461661609791572,-102,-47,-12,62,51,-4,-53,-40
1461661609791572,83,-98,-7,-19,-10,43,78,43
1461661609797591,-103,-39,13,93,12,-45,-121,-95
1461661609797591,-73,-39,-46,-23,-17,-46,5,-4
1461661609806583,122,127,19,-21,-10,1,8,23
1461661609806583,-85,-2,13,-23,18,9,54,-6
1461661609820621,58,-92,37,-57,-43,34,-12,8
1461661609820621,49,90,-42,70,45,-2,-22,-15
1461661609827596,-83,-96,-19,-20,-10,-27,-23,-1
1461661609827596,-4,-1,-42,-108,-40,9,19,15
1461661609843624,45,-83,49,88,66,33,-15,-13
1461661609843624,-13,-26,11,-90,-53,-29,27,-5
1461661609844624,53,113,4,88,58,24,1,15
1461661609844624,-74,-23,-3,-70,-6,-19,-10,11
1461661609857618,114,-48,13,-25,-31,-24,-49,-20
1461661609857618,-63,35,-42,67,81,22,20,34
1461661609865682,-61,21,-55,-99,-38,-26,-48,-4
1461661609865682,-9,-41,-19,-43,-28,-25,-34,-8
1461661609880693,36,-66,-36,101,33,-22,5,-11
1461661609880693,-34,31,46,-2,10,43,45,11
1461661609886651,-73,56,-14,-128,-62,25,48,-8
1461661609886651,30,-24,20,127,76,5,-31,-21
1461661609903668,53,-50,-43,-47,-6,-8,8,33
1461661609903668,2,42,58,-128,-53,3,-11,-19
1461661609904669,61,64,-14,88,52,21,31,17
1461661609904669,-45,70,-16,-51,-22,13,40,-7
1461661609916672,-90,-3,17,2,0,-8,-20,7
1461661609916672,-29,-10,-15,-39,-36,-23,-44,-19
1461661609925679,-23,52,2,-2,4,26,26,6
1461661609925679,86,47,12,21,-8,-16,-66,5
1461661609940689,-38,1,-6,-50,-26,-87,14,13
1461661609940689,4,40,17,-22,-12,56,-42,4
1461661609946694,52,-46,-10,-18,-17,-25,-30,18
1461661609946694,84,20,2,-26,-43,12,10,-16
1461661609963732,-78,-14,9,112,99,36,21,-5
1461661609963732,5,22,8,-77,-36,-33,21,0
1461661609964708,-4,80,36,-42,-19,26,52,2
1461661609964708,2,-47,12,89,56,15,-14,-12
1461661609976741,5,-5,-25,25,42,-2,-18,-3
1461661609976741,-11,19,-23,-76,-4,-14,11,-19
1461661609985722,19,15,22,87,18,9,9,8
1461661609985722,-23,-37,0,-6,-26,-28,-25,-10
1461661610000719,-10,-5,37,-43,-26,5,-4,-6
1461661610000719,-11,-128,-20,26,5,19,79,77
1461661610006736,-8,29,-28,-50,-23,-13,-35,12
1461661610006736,35,127,19,8,-8,-3,-23,4
1461661610023794,-76,127,-32,-17,-6,-24,-11,4
1461661610023794,53,70,1,25,-11,-45,-34,-11
1461661610024736,1,-18,6,-6,0,68,32,12
1461661610024736,67,-5,-8,14,-1,-15,-32,-38
1461661610036762,16,-31,11,-23,-27,22,-41,-15
1461661610036762,11,-128,4,-31,-36,-29,47,-13
1461661610046752,24,-128,-18,-73,-53,-30,15,3
1461661610046752,-16,-102,-37,14,54,43,39,2
1461661610060763,1,-47,-19,-110,-12,11,0,-29
1461661610060763,-14,-114,40,127,61,2,-25,-24
1461661610066786,-26,-70,-12,77,73,4,5,-23
1461661610066786,-17,-10,-41,-26,-31,-14,-4,-12
1461661610083837,-1,127,47,13,14,-9,2,1
1461661610083837,25,88,-14,-27,-30,-8,-28,-18
1461661610084779,3,85,-26,-22,-32,-5,17,32
1461661610084779,5,127,-9,-29,-17,-17,-20,30
1461661610097801,1,127,-14,2,-1,-11,47,52
1461661610097801,-40,108,2,2,2,5,7,2
1461661610105794,78,-22,24,16,10,51,-56,-13
1461661610105794,-23,-91,12,-8,-14,-28,-8,25
1461661610120805,19,-104,-10,8,-4,-7,19,22
1461661610120805,-14,-128,-1,9,-14,-8,-57,-17
1461661610126825,-28,-128,-21,-46,-24,-28,6,-29
1461661610126825,-1,-118,16,-56,-17,25,-2,-14
1461661610143836,-4,-112,-1,53,64,28,-8,-20
1461661610143836,-6,-128,-37,39,33,-4,13,0
1461661610144821,-13,-128,-3,28,31,2,10,-20
1461661610144821,-9,-104,34,29,-15,4,-6,-23
1461661610156832,-11,-68,-44,-41,-27,-14,3,-12
1461661610156832,14,-89,-7,-10,-12,-3,-2,-7
1461661610171900,-14,-28,0,1,-11,-5,6,-10
1461661610171900,-14,68,13,9,6,-2,18,-1
1461661610180848,-18,27,24,19,0,-1,-14,7
1461661610180848,24,51,-24,-4,3,-8,-7,3
1461661610186863,3,67,-4,-2,-7,20,25,34
1461661610186863,-15,115,4,-6,0,2,27,16
1461661610203876,7,79,8,8,-4,28,1,15
1461661610203876,-38,17,-6,-32,-19,-10,-15,-19
1461661610204865,11,0,5,-33,-4,-18,-17,-17
1461661610204865,4,-21,5,34,0,-11,-6,13
1461661610216931,23,-23,-11,-10,9,2,-4,4
1461661610216931,14,-28,26,67,41,9,14,2
1461661610225878,-11,-36,6,27,9,-8,14,-5
1461661610225878,-7,-56,-11,-7,8,14,3,-4
1461661610239900,-9,-3,-10,-54,-37,-17,-17,-7
1461661610239900,9,35,23,29,12,8,5,11
1461661610246952,23,40,-7,8,-2,-3,0,4
1461661610246952,-25,40,2,-2,6,4,-3,8
1461661610263932,-17,-14,-3,9,-10,0,-8,-2
1461661610263932,36,20,-10,-34,-20,-13,8,16
1461661610264925,-3,36,9,10,-2,-10,-4,17
1461661610264925,35,-13,6,-7,-5,23,22,9
1461661610276974,-29,-23,7,9,-9,15,4,35
1461661610276974,-44,-38,-14,-24,-9,18,-17,-55
1461661610285920,-36,-45,-3,7,6,3,8,-20
1461661610285920,19,-9,-8,-16,-5,-27,-15,-2
1461661610300933,-14,-30,-8,-23,-26,-32,-23,-18
1461661610300933,34,-41,8,43,10,-7,-19,-3
1461661610306936,14,-24,12,24,8,-10,0,-9
1461661610306936,-13,-33,5,-5,5,6,10,-7
1461661610323949,22,-16,-17,41,28,26,16,0
1461661610323949,-7,-14,-5,-34,-12,-8,-4,4
1461661610324955,-3,-16,20,-1,9,1,-1,-18
1461661610324955,-11,-6,-42,-4,-6,-21,-9,3
1461661610336973,3,28,9,-7,-12,-6,-5,-3
1461661610336973,4,18,-15,-16,-9,-1,4,12
1461661610345966,9,31,-11,-7,-4,-3,-9,6
1461661610345966,2,33,12,3,2,-13,-21,2
1461661610359976,19,47,6,-2,-2,12,16,7
1461661610359976,1,5,-11,-1,4,34,8,20
1461661610367036,-9,-19,11,-9,-10,-1,3,0
1461661610367036,-28,-4,-10,-4,-4,-8,-6,3
1461661610383991,-3,30,7,12,2,-15,-10,-4
1461661610383991,-11,-13,-11,-12,-2,-7,-1,4
1461661610384991,12,16,10,5,-6,-10,-4,0
1461661610384991,1,16,2,-5,2,9,3,4
1461661610397028,5,-4,19,-2,16,10,6,3
1461661610397028,12,-17,1,15,5,-1,0,0
1461661610406036,-7,-40,-38,-4,-7,-2,1,3
1461661610406036,-3,-26,-6,3,-3,-15,-13,-43
1461661610420045,-4,-8,46,-32,-17,5,2,-15
1461661610420045,-14,-28,1,-23,-5,-2,-5,-18
1461661610427040,1,12,-1,19,12,-6,-2,-12
1461661610427040,7,1,-4,34,12,16,15,10
1461661610443051,-4,-8,-1,11,6,-10,-3,-11
1461661610443051,-4,28,9,2,-2,-29,-10,-7
1461661610445038,1,21,-13,-15,-8,7,5,1
1461661610445038,-2,99,9,-13,-1,24,10,11
1461661610458048,-8,80,-13,7,2,2,-6,-3
1461661610458048,4,55,5,-3,-2,41,40,20
1461661610466051,12,78,2,-5,-5,-8,-7,3
1461661610466051,3,4,21,3,1,-5,0,6
1461661610480089,-5,-30,-2,4,-3,-14,-12,-3
1461661610480089,1,-21,5,-10,-6,-6,-7,-2
1461661610487075,6,-45,1,1,-2,-7,0,3
1461661610487075,-11,-49,-6,-1,1,0,1,-3
1461661610503087,-9,-28,-29,-3,-2,2,-4,-5
1461661610503087,8,-29,32,2,1,-6,-4,-2
1461661610505075,-2,-59,1,-2,-5,-2,-2,-6
1461661610505075,-2,-45,-38,-2,2,1,2,2
1461661610517142,5,2,60,8,-1,-2,3,-7
1461661610517142,-7,-22,-38,-16,-5,-2,-8,-8
1461661610526093,2,8,35,-3,-2,-2,-2,0
1461661610526093,-4,-21,-15,-4,1,-2,5,-4
1461661610540118,-6,-36,-28,-1,-2,1,0,-11
1461661610540118,3,13,8,6,-5,-4,-5,-8
1461661610547131,4,1,-5,-4,3,7,1,-1
1461661610547131,-3,-23,13,-5,-3,-3,2,-2
1461661610563142,-2,1,-2,-1,-4,3,1,-3
1461661610563142,0,17,-6,4,2,-7,-4,-4
1461661610570123,2,-10,-7,-3,-3,0,1,1
1461661610570123,1,12,28,5,2,-1,2,1
1461661610577187,-5,-4,-37,0,-4,-9,-6,-5
1461661610577187,-1,2,-16,-5,-4,4,4,11
1461661610594140,-3,7,4,-2,1,2,-2,-1
1461661610594140,-5,-8,-34,-6,-5,-1,-1,-9
1461661610600203,-3,11,8,-3,1,-1,-1,-7
1461661610600203,4,6,8,5,1,-9,-6,-7
1461661610607177,2,2,14,7,3,-5,3,6
1461661610607177,-1,14,11,6,1,3,0,0
1461661610623188,-3,8,9,-3,-3,-1,0,-6
1461661610623188,-2,-8,-39,-9,-4,4,1,-1
1461661610630165,6,11,45,12,5,7,0,5
1461661610630165,0,6,-8,9,7,1,2,3
1461661610637185,-12,-27,-56,-18,-10,-7,-6,-5
1461661610637185,1,39,6,-2,-5,-5,-3,0
1461661610647192,4,12,-12,0,1,-6,-1,2
1461661610647192,-5,-5,8,-2,0,5,1,3
1461661610660226,0,11,23,12,-2,1,0,0
1461661610660226,2,-6,2,-13,-8,-5,-5,-2
1461661610674234,2,-8,-19,-1,2,-6,0,6
1461661610674234,-1,31,12,3,3,-1,0,7
1461661610683241,-4,-2,-22,-8,-5,2,-1,-5
1461661610683241,4,-5,-2,0,-3,-5,-4,-4
1461661610689218,5,0,-6,2,-1,6,1,8
1461661610689218,-8,-31,6,-2,2,0,-2,-1
1461661610697270,0,3,3,-4,-5,-3,-5,-2
1461661610697270,5,-9,-14,5,4,0,0,3
1461661610706230,1,-3,3,-2,3,1,1,6
1461661610706230,-1,3,14,-3,1,1,-1,2
1461661610720287,-4,-6,-19,-5,-4,-6,-2,-4
1461661610720287,-3,-9,12,3,-1,-2,-1,1
1461661610727294,1,1,-14,-2,1,0,0,3
1461661610727294,1,13,60,0,-2,-1,-2,0
1461661610744326,-10,-32,-60,-13,-3,-2,0,-4
1461661610744326,3,4,15,-1,-2,2,-2,0
1461661610757336,1,-6,-15,-1,-1,-4,-1,1
1461661610757336,-3,-2,0,-1,-4,-8,-2,0
1461661610767341,3,15,31,3,-1,4,-3,-2
1461661610767341,1,-4,-12,4,0,-2,-2,0
1461661610768342,3,15,31,3,-1,4,-3,-2
1461661610768342,1,-4,-12,4,0,-2,-2,0
1461661610769344,2,-10,-7,-3,-3,0,1,1
1461661610769344,1,12,28,5,2,-1,2,1
1461661610773347,-5,-4,-37,0,-4,-9,-6,-5
1461661610773347,-1,2,-16,-5,-4,4,4,11
1461661610780345,2,8,13,3,0,-1,-2,0
1461661610780345,-4,-5,-15,-3,-3,-2,-3,0
1461661610787349,0,4,-1,4,1,0,2,2
1461661610787349,-4,-4,-19,-1,-4,-1,1,0
1461661610811368,2,9,1,-4,-1,0,-1,2
1461661610811368,6,17,28,-2,-1,1,1,0
1461661610812366,0,-7,-13,8,4,0,0,2
1461661610812366,-8,-12,-18,-7,-3,1,0,-2
1461661610825439,0,2,-7,4,0,-4,-3,-3
1461661610825439,-3,-6,-14,0,0,0,0,-1
1461661610833381,1,-2,14,-3,-1,-2,0,1
1461661610833381,-2,-4,-4,0,1,1,-1,-2
1461661610840387,3,16,22,3,-3,-4,-3,-1
1461661610840387,-3,1,7,-9,-5,-3,-1,2
1461661610847392,-4,-4,-9,-8,-5,-4,-2,-3
1461661610847392,-2,-2,1,5,5,3,-2,0
1461661610862402,-4,-2,-1,-2,-4,-1,-1,-3
1461661610862402,3,-1,-20,8,-2,0,0,-1
1461661610869407,-2,3,3,-4,5,0,-1,0
1461661610869407,1,-3,-8,-1,-1,-1,0,-1
1461661610886419,-1,6,19,-2,-3,-2,0,-3
1461661610886419,2,4,6,3,0,0,0,0
1461661610887420,0,-7,-8,-5,-1,2,-1,1
1461661610887420,-1,-7,-14,-7,-3,-4,-2,-2
1461661610900428,1,-2,3,1,0,-1,-1,1
1461661610900428,-2,0,5,-2,-4,-3,-1,-3
1461661610907433,-1,2,1,0,-3,-1,-1,0
1461661610907433,-1,1,-3,-2,0,0,0,-2
1461661610922445,2,4,-1,-2,-2,-3,-2,-3
1461661610922445,-2,-9,-2,-1,2,0,-3,-3
1461661610929450,-1,5,4,5,1,-1,-1,-1
1461661610929450,2,2,16,-6,-4,-1,-2,-3
1461661610945460,-3,-7,-24,2,1,0,-1,-3
1461661610945460,2,3,-7,-3,2,0,0,-1
1461661610947462,-6,-9,-30,-28,-12,-4,-2,-5
1461661610947462,0,-3,1,26,15,4,3,1
1461661610960470,-4,2,-4,1,-3,-3,-1,-1
1461661610960470,2,0,7,-1,0,0,0,-1
1461661610967475,1,2,13,3,-3,1,1,1
1461661610967475,-1,0,-12,-11,-6,-1,-2,-1
1461661610982487,-3,-1,14,4,2,-1,-2,0
1461661610982487,-3,3,14,-1,-2,2,2,0
1461661610989491,0,3,-1,0,-1,-1,0,1
1461661610989491,-2,-1,-6,-3,-3,0,-2,-2
1461661611005504,-2,-3,-2,0,-1,0,-1,-1
1461661611005504,0,-1,4,-4,-1,-2,-2,0
1461661611013523,4,10,-10,8,1,-1,0,3
1461661611013523,-6,-10,1,-4,-2,-1,-2,-2
1461661611020553,-1,2,11,-5,-3,-2,-1,0
1461661611020553,3,6,7,7,1,-1,0,-1
1461661611027557,2,9,31,0,-1,-1,-1,-1
1461661611027557,-3,-6,-21,-4,-4,-4,-1,-1
1461661611042588,0,0,-6,-10,-7,-3,-1,0
1461661611042588,-2,-8,-12,0,1,0,-1,-2
1461661611049593,-1,7,23,10,5,3,1,0
1461661611049593,3,14,16,1,0,-2,0,-2
1461661611066568,-7,-18,-13,-7,-3,-2,-2,-5
1461661611066568,1,4,-1,-2,-4,-1,-3,-2
1461661611067567,-1,-5,-12,-3,-1,-2,0,-1
1461661611067567,1,4,-5,-7,-5,-2,-2,-1
1461661611079686,-5,-11,-3,-2,0,-1,1,-1
1461661611079686,-1,-2,-17,1,-1,-2,-1,0
1461661611088635,-1,-2,3,3,2,1,-1,-1
1461661611088635,-2,-1,4,1,-1,-2,-1,-3
1461661611102646,4,7,-9,5,-1,1,0,0
1461661611102646,-4,-5,15,-3,-1,0,-1,-2
1461661611109650,-2,-4,-14,-2,-2,-1,1,-2
1461661611109650,-3,-1,6,-1,-1,-1,-3,-4
1461661611125656,1,6,12,-3,0,0,0,-1
1461661611125656,-1,0,5,4,-2,-2,0,-2
1461661611127658,0,-1,-3,5,0,-1,-2,-2
1461661611127658,-2,-7,-22,-5,-1,-1,-1,-2
1461661611139665,1,5,21,-6,-3,-3,-1,-2
1461661611139665,-3,0,-12,9,2,-1,-1,-1
1461661611148670,-1,-7,2,-7,-2,0,-1,-3
1461661611148670,-4,-9,-13,5,0,-1,-1,-1
1461661611162683,-1,0,4,0,1,0,-2,-1
1461661611162683,0,-4,-3,-3,-2,-2,0,0
1461661611177695,-2,3,7,0,-1,-2,-2,0
1461661611177695,-2,-1,-18,-6,-3,-2,-2,-1
1461661611187700,-2,-1,-5,3,0,-1,-1,-1
1461661611187700,-1,6,9,-3,0,0,0,-2
1461661611190702,-4,-10,1,-3,0,-2,-1,-1
1461661611190702,0,-2,-4,-2,-1,-1,-1,-3
1461661611201709,2,6,5,3,1,1,0,0
1461661611201709,-2,-2,-17,-9,-3,0,-1,0
1461661611209713,-1,-8,-14,1,0,2,0,0
1461661611209713,-4,1,14,1,-1,-2,-2,-2
1461661611230729,3,4,-4,-3,-4,-1,-2,-1
1461661611230729,1,-2,7,7,5,2,0,-1
1461661611233730,-3,-3,3,2,1,0,-1,-1
1461661611233730,-1,-6,-2,-1,-2,-2,-1,-2
1461661611246751,1,5,1,0,-3,-1,0,-1
1461661611246751,0,-4,-14,-6,-1,-2,0,0
1461661611248741,1,-2,-6,-2,-4,-1,-1,0
1461661611248741,-5,0,7,-4,-4,0,-2,-1
1461661611260749,-3,-2,13,-5,-2,-2,0,1
1461661611260749,0,-5,-13,0,-2,-1,-2,-1
1461661611266773,-2,1,1,1,-2,-2,-1,2
1461661611266773,-3,-6,-12,-2,-1,-1,0,1
1461661611282823,-2,-6,-15,2,3,3,0,2
1461661611282823,-1,3,11,-3,1,1,1,2
1461661611289769,4,8,6,2,1,-1,-2,-1
1461661611289769,2,-1,0,-3,-2,-1,-2,-1
1461661611305793,-1,-1,13,2,0,0,-1,-2
1461661611305793,0,0,1,-1,-3,0,-2,-2
1461661611307784,1,-1,-8,-2,2,2,1,1
1461661611307784,-2,-2,1,0,0,-2,0,0
1461661611319850,1,5,3,5,5,1,1,0
1461661611319850,1,-4,-10,-3,-3,-1,0,0
1461661611328830,-1,4,15,1,-1,-2,-1,-2
1461661611328830,-2,0,2,-7,-3,-2,-3,-1
1461661611342837,-1,2,-5,1,2,-1,-1,-1
1461661611342837,-1,2,19,-7,-2,-2,-1,-1
1461661611349841,-1,-4,-30,0,0,2,1,-1
1461661611349841,1,4,2,4,-1,0,1,1
1461661611366826,1,0,-19,-3,-2,-2,-1,0
1461661611366826,-2,-5,6,-1,1,-1,-2,0
1461661611371856,-1,-1,9,-2,-1,-2,-1,-2
1461661611371856,-4,-4,6,-4,-1,-3,0,-3
1461661611379863,0,3,-4,-1,-3,0,-1,2
1461661611379863,0,4,-4,3,0,-3,2,0
1461661611388844,0,1,13,1,0,0,-1,-2
1461661611388844,-3,-14,-25,-3,0,-1,-2,-2
1461661611402869,0,-5,-7,-5,-3,0,-1,-1
1461661611402869,1,1,0,4,0,1,-1,2
1461661611409857,-2,2,2,-3,-2,1,0,0
1461661611409857,1,0,-3,-1,1,2,0,-2
1461661611425925,-1,-6,0,-1,-4,-2,-1,-2
1461661611425925,-2,1,21,-2,-2,0,-2,-2
1461661611427925,-3,-4,-16,2,-2,-3,-2,-1
1461661611427925,-1,1,1,0,0,-1,-1,-1
1461661611439893,-2,-4,-1,-5,-2,1,-1,-1
1461661611439893,0,2,-1,-8,-3,0,1,1
1461661611448896,1,1,-11,11,0,-1,0,-2
1461661611448896,-2,-5,9,-2,3,0,0,-2
1461661611462931,-2,3,28,-5,1,0,0,-2
1461661611462931,1,-7,-15,4,1,1,0,-1
1461661611469936,-3,-2,-2,-6,0,0,-2,-1
1461661611469936,0,1,-7,1,-3,-2,0,0
1461661611485931,0,1,-10,3,-2,0,-1,-2
1461661611485931,-1,1,11,-4,-1,0,-1,-1
1461661611487910,-3,-9,-18,-4,-4,-2,-1,-1
1461661611487910,0,4,7,0,-1,-1,-2,-1
1461661611499941,-3,-2,6,-2,-2,-3,-4,-3
1461661611499941,1,5,4,5,-3,-2,-2,-1
1461661611508929,0,1,3,-7,-4,0,-3,-2
1461661611508929,-5,-7,-3,-3,-6,-2,-3,-4
1461661611522956,-2,-5,-26,3,2,0,1,-1
1461661611522956,-2,2,17,4,-1,-4,-2,-2
1461661611529961,-2,-3,-3,-4,0,-1,-2,0
1461661611529961,0,1,7,0,-3,-1,-3,0
1461661611544989,1,2,6,4,0,-1,-2,0
1461661611544989,0,2,-11,9,5,3,1,0
1461661611551969,-2,0,7,2,1,-1,-2,-3
1461661611551969,-4,-5,-13,-5,0,-2,-2,-1
1461661611559968,-2,-1,8,2,0,-1,-2,1
1461661611559968,2,4,-3,-3,-3,0,0,2
1461661611568981,0,-11,-29,-1,1,1,-1,0
1461661611568981,-2,1,-6,0,-1,0,-1,-1
1461661611583992,-3,0,7,-2,-1,-2,-1,-2
1461661611583992,-2,-4,-3,-8,-1,-1,0,-1
1461661611589994,-1,3,14,3,0,-2,1,-2
1461661611589994,0,-2,1,-3,-1,-3,-3,0
1461661611605008,-1,-3,-14,-2,-2,-1,-1,-2
1461661611605008,1,-2,5,1,2,1,-3,-2
1461661611612059,-1,-7,-1,-7,-5,-4,-3,-1
1461661611612059,0,5,8,5,2,-2,-1,-2
1461661611620063,0,0,1,0,-2,0,1,-1
1461661611620063,-2,-3,-17,-3,0,-2,0,-1
1461661611629012,-2,2,4,-3,0,0,0,-2
1461661611629012,-1,-3,-5,-4,1,2,1,-2
1461661611651040,2,5,6,1,-2,-1,-1,1
1461661611651040,-2,-5,-3,-9,-3,-1,-1,0
1461661611653027,-2,-4,8,5,-1,-1,-1,1
1461661611653027,-1,0,2,-4,-5,-3,-1,-3
1461661611665093,0,-4,-11,-1,5,2,1,1
1461661611665093,-1,-1,-9,-2,-3,-3,-2,-1
1461661611672099,1,7,7,-2,-2,-2,-1,0
1461661611672099,-2,-5,-11,-6,-3,-2,-2,1
1461661611680068,-1,-3,4,-2,0,-1,-1,-1
1461661611680068,-2,-2,0,1,0,0,-1,-1
1461661611689055,2,4,1,1,2,0,-1,-1
1461661611689055,-1,1,-3,-2,-2,-1,-2,-1
1461661611703064,-1,1,-4,-2,-2,-2,0,-2
1461661611703064,-1,-1,-8,-1,-1,0,-1,0
1461661611710069,-3,-1,12,1,-3,-1,0,-3
1461661611710069,-1,0,-7,1,-1,0,0,0
1461661611733100,-3,-8,-11,-4,-3,-2,-1,-1
1461661611733100,-1,-4,10,-2,-3,-1,-2,-2
1461661611735087,-1,-2,-9,-3,-2,-1,0,-1
1461661611735087,-1,-4,-3,0,1,0,-1,-2
1461661611748152,1,2,7,-3,-3,-2,-3,0
1461661611748152,0,0,-9,7,1,1,-1,1
1461661611750097,-1,-3,-5,0,1,0,-1,-3
1461661611750097,-4,-4,6,-5,-3,0,-1,-2
1461661611763164,-2,-2,-11,2,-1,-3,-1,-2
1461661611763164,-3,-1,10,-6,-3,-2,-1,-1
1461661611770174,-2,-3,-22,3,1,0,0,-1
1461661611770174,0,1,11,1,-1,-2,-1,-2
1461661611785150,2,6,8,4,2,-1,0,1
1461661611785150,-1,-10,-19,-4,-3,-2,0,-1
1461661611792154,0,-3,-3,-6,-3,-1,0,0
1461661611792154,1,0,-3,-4,-3,-2,-4,-2
1461661611809144,-1,-3,-5,-2,-1,-1,0,-2
1461661611809144,0,2,5,-1,-1,0,0,1
1461661611810139,1,1,3,-3,0,-1,-1,2
1461661611810139,1,-1,3,1,1,-1,-1,0
1461661611823177,2,0,-10,0,1,-1,-1,0
1461661611823177,2,-2,-3,-2,-1,-2,0,0
1461661611830181,-2,3,24,1,2,-1,-1,-1
1461661611830181,-3,-8,-15,2,-1,0,0,-1
1461661611845182,0,-3,7,-6,-2,0,0,-2
1461661611845182,-1,0,-10,1,-1,0,0,-1
1461661611852187,0,2,25,3,2,0,-3,-1
1461661611852187,-3,-6,-20,-1,0,-2,-3,-3
1461661611868180,-1,-3,-9,-4,-3,-1,0,-1
1461661611868180,-3,-5,1,-7,-4,-1,-2,-4
1461661611870180,-1,0,-5,3,-2,-2,0,-2
1461661611870180,-2,0,3,6,0,-1,1,-1
1461661611883203,-3,1,2,-1,-1,1,-1,0
1461661611883203,0,2,-3,4,-2,-2,-2,-1
1461661611889194,-3,-3,-12,-14,-5,0,0,-1
1461661611889194,0,6,4,1,-1,0,-1,1
1461661611905205,0,1,2,1,-2,-1,-2,0
1461661611905205,-3,-1,12,2,4,-2,-1,0
1461661611912210,-2,-1,-3,-2,-2,-2,-1,-1
1461661611912210,-1,3,-2,-3,-2,-1,0,-2
1461661611928221,-2,-5,-9,3,1,1,0,-1
1461661611928221,3,12,30,1,0,-1,0,1
1461661611930223,-4,-11,-16,-6,-3,-3,-2,1
1461661611930223,-3,-1,-4,-2,-3,0,-1,-1
1461661611943232,1,1,7,-3,-3,-2,0,-1
1461661611943232,-3,-4,-10,7,3,0,1,-2
1461661611949236,1,14,2,-8,-5,-2,0,-2
1461661611949236,1,-3,-11,6,3,1,0,1
1461661611965264,-3,-1,12,-3,0,-1,-2,-1
1461661611965264,-1,-4,-5,-1,0,0,0,1
1461661611972256,-1,-4,4,2,0,-2,-2,-1
1461661611972256,1,5,-4,-9,-4,-1,-1,-2
1461661611988263,-3,-3,3,-1,-3,-1,0,0
1461661611988263,1,1,-7,-7,-3,0,0,1
1461661611990266,-3,-5,-4,-1,0,1,-1,-2
1461661611990266,-2,-4,-4,0,-1,-2,-1,-1
1461661612003273,0,0,0,5,1,-2,-1,-1
1461661612003273,0,5,17,-9,-1,0,-2,0
1461661612009278,-2,-9,-21,-2,-3,0,-2,-1
1461661612009278,-1,-1,5,-4,0,-2,-1,-2
1461661612032358,2,-1,-10,1,-1,-2,0,-1
1461661612032358,-5,-7,-16,-2,-3,-3,-1,-4
1461661612041323,4,13,0,-4,-2,-1,1,-1
1461661612041323,-8,-21,13,1,-2,-3,-1,-3
1461661612049329,-1,0,4,-6,0,1,-1,0
1461661612049329,2,-2,-2,12,4,0,1,2
1461661612054331,-1,-1,1,-1,-3,-2,-2,0
1461661612054331,-1,2,1,1,0,-2,0,0
1461661612063321,-3,-1,3,-1,0,-2,-2,0
1461661612063321,-3,-6,-13,-1,-1,0,-2,-3
1461661612071324,2,2,3,0,-1,-2,0,-1
1461661612071324,2,7,0,-3,-3,-1,-1,1
1461661612085335,4,2,6,3,0,0,-1,0
1461661612085335,-2,-11,-31,-12,-4,-2,-1,-3
1461661612092349,-3,-5,8,5,2,-1,-3,-2
1461661612092349,-4,2,-7,-2,1,-1,-2,-6
1461661612116393,-1,-4,2,-8,-4,-2,-2,-2
1461661612116393,1,5,12,13,4,0,1,1
1461661612117355,-2,-5,-4,-3,-1,-1,-2,-1
1461661612117355,0,-2,2,1,-2,-1,-1,0
1461661612123360,2,4,-11,-6,-4,-1,1,-1
1461661612123360,0,-7,3,6,5,1,-1,-1
1461661612129402,-6,-3,5,-7,-4,-2,0,-2
1461661612129402,3,4,14,9,3,1,-2,2
1461661612145404,-7,-6,-7,2,-3,0,-2,0
1461661612145404,2,3,-1,-13,-2,-1,-1,1
1461661612152409,-1,-15,-21,-9,-6,-4,-2,-2
1461661612152409,-7,7,7,5,10,3,-1,-2
1461661612168391,4,3,-8,8,-1,-1,0,-1
1461661612168391,-1,0,15,-5,-3,-1,-1,-1
1461661612170395,4,7,18,3,-2,1,0,0
1461661612170395,2,-1,-4,-1,-6,-3,0,-2
1461661612183415,-2,-3,0,1,0,1,-1,-2
1461661612183415,-1,0,-8,-6,-4,-2,0,1
1461661612189408,-3,1,0,-3,-1,-2,-2,2
1461661612189408,-4,-7,-2,0,3,1,1,1
1461661612205434,3,7,5,10,6,0,0,2
1461661612205434,-4,-8,-7,-3,-6,-1,-2,-2
1461661612212438,0,-4,4,3,2,0,0,-1
1461661612212438,1,2,13,-8,-7,-4,-2,-3
1461661612228468,0,5,-1,-2,-1,-2,-1,-3
1461661612228468,3,8,1,-3,-3,-2,-2,0
1461661612230442,-6,-9,-6,4,0,2,0,-4
1461661612230442,-3,-5,-16,-24,-9,-4,-3,-2
1461661612242451,-1,-12,10,8,3,3,0,-3
1461661612242451,4,13,8,5,1,-1,-2,0
1461661612251458,1,-6,0,6,3,-2,-1,-4
1461661612251458,-4,1,-5,5,-1,-2,7,-1
1461661612265467,-2,-1,-5,-8,-5,-1,-2,1
1461661612265467,-2,4,0,-6,-1,-1,-4,0
1461661612272467,1,-3,3,9,-1,-1,-8,-2
1461661612272467,2,-1,-3,-3,-3,-2,-7,-1
1461661612288495,2,1,5,-11,-3,0,5,1
1461661612288495,-1,-7,-19,-5,-2,0,2,2
1461661612290480,-3,-2,-18,-2,4,0,5,2
1461661612290480,2,1,15,-7,-10,-5,-14,0
1461661612302490,-6,-16,-32,8,-4,-5,-6,-5
1461661612302490,3,8,17,22,16,4,2,1
1461661612311507,-1,1,0,-25,-19,-5,0,-3
1461661612311507,1,-5,-12,29,25,11,9,5
1461661612325561,-2,9,10,-6,-3,0,3,6
1461661612325561,2,2,-5,-7,-4,-1,0,0
1461661612332566,-1,-15,-10,-11,-6,-1,-1,-1
1461661612332566,-5,5,23,3,-8,-3,2,-6
1461661612348577,-2,3,3,-2,4,3,-7,-3
1461661612348577,5,-1,11,15,4,-1,0,0
1461661612350580,9,11,-6,5,5,0,10,5
1461661612350580,2,-2,-10,-6,-5,2,5,6
1461661612362543,2,-1,-3,-5,3,7,28,7
1461661612362543,-8,-8,-8,-29,-21,-15,-48,-14
1461661612371537,2,1,17,30,10,-6,-20,-11
1461661612371537,0,-4,-13,-5,-3,-6,6,3
1461661612385546,1,3,-1,7,1,0,-19,-4
1461661612385546,-4,3,-1,-7,-9,3,31,8
1461661612392564,1,-5,-4,-12,9,3,3,8
1461661612392564,-2,3,13,7,-3,-4,-9,-2
1461661612408590,-1,-1,-10,-31,-10,0,16,3
1461661612408590,-1,-8,-11,-12,-2,4,-4,0
1461661612410592,-2,24,26,61,21,3,-6,-5
1461661612410592,-10,-30,-25,-17,-17,-6,-9,-13
1461661612431593,4,9,10,23,13,4,9,-2
1461661612431593,-10,-25,-9,7,2,5,15,-3
1461661612433590,-5,8,4,-33,-11,2,-6,-7
1461661612433590,-15,-4,-3,-16,-6,-11,-24,-12
1461661612445602,-5,-11,-18,-20,-12,-9,1,-3
1461661612445602,6,8,0,3,3,5,20,11
1461661612452592,1,7,11,2,-11,-1,-7,2
1461661612452592,-10,-13,-15,-7,0,-12,-6,-7
1461661612467643,3,1,0,1,-4,-14,-44,-12
1461661612467643,5,2,2,5,6,1,-8,-4
1461661612474647,-9,-14,-17,-37,-17,12,42,8
1461661612474647,7,17,3,39,17,4,-6,6
1461661612482650,-3,-3,5,-5,-9,-17,3,4
1461661612482650,-6,12,-12,-45,-13,-5,5,-12
1461661612491642,-19,15,5,-16,-29,-5,-25,-22
1461661612491642,-9,-2,21,49,14,5,-10,-14
1461661612505644,12,21,9,24,35,19,40,6
1461661612505644,-1,-2,-18,-39,-29,-7,-25,-8
1461661612512636,-17,20,6,24,25,-17,-24,-18
1461661612512636,11,-21,-3,-12,-16,0,29,8
1461661612527704,-10,-8,6,28,13,8,-3,-11
1461661612527704,1,14,-12,1,-3,8,19,8
1461661612534665,5,-24,-23,-90,-37,-2,-4,9
1461661612534665,-1,-6,18,15,28,-3,-31,-2
1461661612542657,9,7,11,43,11,0,15,6
1461661612542657,-9,29,18,15,0,-3,-16,4
1461661612551662,28,-7,-40,-20,-5,-11,-11,0
1461661612551662,-3,15,56,16,-16,12,63,9
1461661612565731,-42,-57,-63,-78,-15,21,-5,-15
1461661612565731,23,5,28,101,42,1,-25,12
1461661612572693,6,-6,18,56,27,-27,-48,-1
1461661612572693,-11,12,-7,-48,-31,-25,-17,-25
1461661612587696,-1,31,-28,-86,-18,9,29,1
1461661612587696,-14,-54,4,9,-14,7,-24,-10
1461661612594700,10,-3,-3,63,51,20,76,20
1461661612594700,10,-59,-22,-41,-10,13,15,14
1461661612602705,-14,-52,31,38,-3,1,-20,-5
1461661612602705,14,-26,-5,-41,-14,-37,-69,-29
1461661612610732,-19,-22,17,-16,-24,-16,-20,-16
1461661612610732,-1,64,-13,-7,17,18,66,22
1461661612625734,30,-44,-7,-4,-9,25,0,24
1461661612625734,-9,-2,-14,-1,-7,-19,-10,3
1461661612631738,37,-41,8,36,4,5,5,13
1461661612631738,-25,37,0,-5,3,8,-35,-25
1461661612648743,-12,16,15,21,13,6,41,18
1461661612648743,-1,-37,-23,-51,-28,-22,-9,3
1461661612654774,10,19,10,-3,-2,-5,-1,2
1461661612654774,14,16,-1,-85,-32,-14,-43,5
1461661612670786,-3,10,11,56,21,-4,33,2
1461661612670786,-31,-34,8,83,57,21,-20,-27
1461661612672748,10,-4,-32,-28,-6,6,42,24
1461661612672748,38,-44,-14,13,19,21,-27,1
1461661612686758,-16,-4,-11,-81,-45,-22,3,-5
1461661612686758,-45,12,20,-28,-7,-6,-2,-10
1461661612700781,-10,2,11,-99,-53,-32,-10,3
1461661612700781,6,-52,15,75,34,12,-8,4
1461661612708785,9,-2,-4,6,5,6,18,-32
1461661612708785,22,16,-23,71,38,25,19,30
1461661612714837,-44,22,13,-28,-27,-20,2,-21
1461661612714837,17,-5,-62,-114,-35,-10,-21,22
1461661612738823,35,46,83,83,6,-33,-58,-17
1461661612738823,10,16,5,5,20,22,40,-18
1461661612739803,-12,14,-37,83,52,38,17,6
1461661612739803,-30,-49,15,20,4,-24,27,25
1461661612745829,-17,-15,-15,-5,2,26,-7,-16
1461661612745829,11,71,-2,-128,-66,0,9,-39
1461661612751812,56,-38,-14,21,-23,-23,-32,31
1461661612751812,-36,-48,-2,24,19,-5,-22,-16
1461661612767831,-14,19,-25,34,22,-21,-34,-8
1461661612767831,12,8,0,3,-9,7,50,-1
1461661612774837,-21,5,19,-128,-66,17,31,-7
1461661612774837,23,52,-24,127,60,37,56,31
1461661612790847,4,-15,-24,-30,-7,-28,-69,-13
1461661612790847,-8,-1,14,-45,-34,-36,-23,-10
1461661612792849,60,63,-27,28,34,42,63,21
1461661612792849,-73,-18,-5,-10,11,12,-56,-16
1461661612805858,11,-22,47,19,0,2,52,18
1461661612805858,13,37,-22,30,-8,-6,-10,0
1461661612811862,29,3,0,-2,23,-29,-18,6
1461661612811862,63,87,92,-80,-19,10,52,4
1461661612827858,-11,15,-41,-34,-1,25,-62,-5
1461661612827858,-29,-78,18,93,21,-45,-50,-14
1461661612834879,-85,-38,-2,20,-3,-3,-1,-12
1461661612834879,13,-18,-53,-98,-77,-2,26,13
1461661612850915,23,-8,31,71,10,-11,-9,-8
1461661612850915,-10,13,-13,-15,-1,-3,8,7
1461661612852875,39,2,20,-44,-22,37,39,8
1461661612852875,70,8,-30,95,70,18,-51,12
1461661612873930,-57,32,11,-128,-43,-51,-44,-13
1461661612873930,9,19,30,-70,-69,-6,11,-28
1461661612874891,-16,82,-41,74,63,33,-12,38
1461661612874891,-1,7,15,-32,-26,-41,1,-15
1461661612887913,82,80,11,-17,3,-1,-30,11
1461661612887913,12,62,-15,-43,-20,-16,-24,-22
1461661612894904,76,-111,46,-42,-20,6,17,-4
1461661612894904,-26,-52,-21,2,-3,2,22,-14
1461661612910914,-50,61,3,26,5,57,77,18
1461661612910914,-64,-45,-28,-42,4,-19,-25,32
1461661612912916,77,-54,24,-111,-102,-92,-116,-77
1461661612912916,-16,-1,-8,127,127,11,-19,-5
1461661612924938,-58,34,-26,-128,-80,-6,58,-11
1461661612924938,-51,72,8,-63,-9,44,47,9
1461661612933944,-5,-53,13,30,31,26,19,18
1461661612933944,-19,-69,22,-93,-36,-27,-13,-11
1461661612947954,61,69,-28,121,42,30,69,22
1461661612947954,62,120,36,-25,-22,7,-19,30
1461661612954960,13,-82,-8,-25,14,-13,-55,28
1461661612954960,-88,-65,2,-76,-48,-8,44,-25
1461661612970997,68,9,6,70,50,15,-39,-12
1461661612970997,48,3,29,44,11,-42,-74,-17
1461661612972973,38,-47,-17,31,11,4,16,-15
1461661612972973,-61,37,20,-39,-23,24,42,21
1461661612984970,21,-61,-16,-58,-15,-1,-2,30
1461661612984970,-35,-46,-12,77,10,-18,4,-4
1461661612993989,-44,81,-4,-64,-34,2,-9,-21
1461661612993989,-32,84,-17,12,39,14,-29,-19
1461661613008048,21,68,24,21,3,-49,-77,-27
1461661613008048,-24,33,65,78,37,21,29,9
1461661613015054,-116,-33,-86,127,64,18,34,-14
1461661613015054,97,-50,-24,-117,-67,-2,21,0
1461661613031063,-50,-128,42,16,4,-10,-7,2
1461661613031063,112,36,-12,-26,23,18,14,17
1461661613033063,-87,-42,35,-17,7,15,22,-7
1461661613033063,43,94,21,19,4,34,85,17
1461661613045075,96,82,-32,57,16,-8,-54,2
1461661613045075,-42,-85,-27,-7,-3,-31,-50,11
1461661613054094,61,-28,11,6,-10,-10,-24,0
1461661613054094,5,40,-38,-20,-16,-22,-44,-40
1461661613068088,7,36,23,-60,-28,-8,12,42
1461661613068088,83,-32,-15,-28,14,11,-9,13
1461661613075094,-54,-32,22,-3,-43,-33,-11,-29
1461661613075094,73,-8,22,-3,10,34,28,10
1461661613091104,-78,67,-47,26,85,41,48,-7
1461661613091104,-84,-21,-55,-9,-33,-9,18,-15
1461661613093105,87,-34,81,95,45,19,-7,-7
1461661613093105,-45,25,-24,30,27,-3,-15,-8
1461661613105177,-19,51,-30,-87,-44,-14,-8,3
1461661613105177,-43,3,-14,-1,8,8,27,4
1461661613114153,-43,-31,7,23,44,38,77,22
1461661613114153,127,49,31,36,-10,11,-56,44
1461661613128144,-103,-43,-17,7,-14,-62,-53,-6
1461661613128144,110,-124,10,-32,-21,-8,-9,30
1461661613135136,8,-32,-22,-27,-41,-30,15,9
1461661613135136,-8,53,4,46,17,14,8,-8
1461661613151162,127,44,9,-40,-20,20,-4,11
1461661613151162,-13,96,14,-1,-9,-14,-12,-2
1461661613153164,-25,-4,-42,-20,-4,-14,-14,-17
1461661613153164,29,51,26,-29,-52,-35,5,-27
1461661613165156,-98,33,-13,-16,-4,15,15,-46
1461661613165156,-9,4,-21,-5,19,27,45,-15
1461661613174163,-2,5,-40,-64,-5,-2,-39,-38
1461661613174163,6,39,64,81,44,9,-2,4
1461661613188172,-26,12,-32,-63,-22,-2,0,-17
1461661613188172,-25,9,-10,-63,-53,-9,2,-8
1461661613195177,-7,5,43,48,42,3,14,7
1461661613195177,-41,-87,-15,-36,-11,-6,7,47
1461661613211248,67,-123,19,8,0,-8,-31,15
1461661613211248,-74,-124,-44,-53,14,37,91,50
1461661613213213,67,127,-17,-49,-36,-14,-108,-22
1461661613213213,-25,66,-3,5,-23,-62,-15,22
1461661613224212,-15,53,9,56,31,32,88,52
1461661613224212,54,1,1,-11,-9,-9,-42,-25
1461661613234226,-20,-26,16,20,3,42,0,4
1461661613234226,-4,-81,-31,19,5,-2,-2,2
1461661613248275,-98,-104,1,-59,-54,-43,-10,-29
1461661613248275,26,-97,-9,-20,-12,15,27,-19
1461661613255235,14,0,3,46,58,8,12,-10
1461661613255235,1,-51,-7,49,49,6,-16,-36
1461661613271231,-19,-106,3,-29,-40,-12,4,-14
1461661613271231,-19,-40,37,49,1,-5,-9,-32
1461661613272232,-12,14,-15,39,64,20,5,0
1461661613272232,-55,-18,-1,-106,-57,-16,-7,-11
1461661613284299,6,-59,-32,12,13,0,-8,-7
1461661613284299,0,-65,-9,-3,-8,-4,37,45
1461661613293249,36,-65,-19,-52,-60,-14,-12,23
1461661613293249,24,-128,13,1,13,8,9,47
1461661613308317,34,-55,15,19,15,25,-5,35
1461661613308317,6,123,7,-1,2,-32,-52,-13
1461661613314411,2,127,14,-5,-15,-34,2,8
1461661613314411,-3,124,-13,0,-6,31,32,-2
1461661613331427,-27,118,2,-2,-2,13,-21,-27
1461661613331427,-22,115,-14,1,-1,17,6,-24
1461661613332396,33,127,-41,-113,-75,-35,-13,4
1461661613332396,-44,112,70,73,52,-1,-21,-24
1461661613344381,-2,76,-6,-22,29,3,22,-14
1461661613344381,10,54,-11,-47,-14,1,7,-20
1461661613353383,-13,60,43,83,75,13,-3,-5
1461661613353383,-10,49,-53,-58,-26,-18,-14,-12
1461661613368393,-3,12,-4,-17,-17,-2,3,-16
1461661613368393,21,12,13,-6,10,1,-14,-11
1461661613374397,41,126,6,-31,-30,13,58,50
1461661613374397,-37,118,-30,-50,-32,-9,-31,-18
1461661613391423,10,121,11,53,27,-8,-8,20
1461661613391423,9,127,3,8,5,-1,-19,4
1461661613392423,-30,126,-2,0,-10,-9,-16,-1
1461661613392423,73,110,7,25,9,-4,5,12
1461661613404476,-25,-41,-12,-39,-37,-12,-15,-14
1461661613404476,26,-42,-3,17,27,18,14,6
1461661613413453,-45,-128,9,11,-12,0,11,-3
1461661613413453,11,-127,-6,-85,-50,-10,-4,-7
1461661613428435,-17,-118,10,105,84,15,-4,-15
1461661613428435,-9,-105,-11,-74,-20,18,17,3
1461661613434498,1,-85,15,86,68,16,-1,-3
1461661613434498,-9,-54,-13,-12,-21,-23,-22,-14
1461661613450508,15,-18,-11,-25,-27,-9,1,-6
1461661613450508,-30,54,5,14,6,0,-6,-4
1461661613457514,16,85,-22,-39,-23,8,-1,-1
1461661613457514,3,83,11,5,5,7,8,10
1461661613473468,13,59,5,-3,-10,14,0,2
1461661613473468,-16,14,-14,21,14,-27,-9,12
1461661613475469,-31,30,-22,-35,-28,-1,11,14
1461661613475469,22,31,13,25,19,14,33,2
1461661613487491,27,-31,-1,-9,-10,2,-42,-8
1461661613487491,-45,-45,3,9,-6,-21,-46,-6
1461661613494495,7,-113,-1,-48,-34,-16,-9,-8
1461661613494495,35,-127,-21,-27,4,3,13,8
1461661613510551,-21,-101,27,56,15,6,26,-11
1461661613510551,-2,-118,18,17,19,12,12,-15
1461661613517514,-20,-110,-7,-1,11,-3,-5,-5
1461661613517514,3,-83,-16,20,10,-2,-13,-10
1461661613524517,2,-24,-4,-25,-16,-19,-2,-9
1461661613524517,-3,-13,6,19,2,-8,-3,3
1461661613533512,-3,-19,6,-15,-4,-5,-2,7
1461661613533512,-25,-29,-3,-25,-13,-23,-31,-1
1461661613548547,19,30,-4,16,3,34,23,1
1461661613548547,60,55,15,29,17,40,19,13
1461661613562529,11,37,-14,0,-12,2,19,45
1461661613562529,-76,-10,-11,4,-8,-3,1,-10
1461661613570542,-14,17,6,-26,-17,-51,-40,-23
1461661613570542,38,47,-6,6,9,10,28,17
1461661613584573,-34,79,-7,-10,-4,0,-8,5
1461661613584573,-5,7,-6,7,-6,-16,-12,10
1461661613593580,-22,-57,-3,-52,-24,-17,3,-4
1461661613593580,8,-57,-8,29,23,17,1,-11
1461661613595558,5,-68,8,36,16,-1,-8,-9
1461661613595558,2,-46,27,11,11,12,2,-3
1461661613607576,12,-26,-15,-40,-23,-10,1,-3
1461661613607576,-2,-25,24,-20,-10,-2,-6,-16
1461661613614579,-12,-34,-40,3,4,-13,-5,-17
1461661613614579,-5,-10,9,10,3,-5,1,-3
1461661613630591,21,11,-12,10,8,4,-17,-21
1461661613630591,-19,12,-5,-7,-9,-5,5,6
1461661613644625,-3,35,9,-4,-5,6,13,-2
1461661613644625,10,51,-16,-9,-9,29,9,11
1461661613653631,0,41,5,-1,7,-11,-4,12
1461661613653631,-12,33,8,10,1,-1,-4,-7
1461661613655610,-7,5,-5,-13,-7,4,-7,-10
1461661613655610,13,27,2,1,-3,-6,1,11
1461661613667665,0,5,4,1,-4,-3,6,7
1461661613667665,-8,19,16,1,-3,-19,-11,-1
1461661613674616,-1,8,-10,0,-2,-2,-4,-8
1461661613674616,-2,1,22,2,3,2,-5,-4
1461661613690626,10,5,-29,5,2,5,10,15
1461661613690626,-5,-46,-34,-2,-3,-7,2,-2
1461661613697626,-9,3,12,-6,-5,1,-5,-13
1461661613697626,-9,16,65,-11,-10,-16,-10,-8
1461661613713638,9,-6,25,13,3,9,4,7
1461661613713638,3,-7,-21,-6,5,3,3,-1
1461661613715640,-13,-23,-35,-18,4,14,0,-8
1461661613715640,3,11,-17,7,-1,-14,-10,-11
1461661613727656,8,8,24,-2,-5,15,9,8
1461661613727656,-4,4,-23,4,1,5,5,6
1461661613736652,-4,78,-10,1,3,-6,-7,-5
1461661613736652,0,27,-19,-7,-8,-13,-11,-7
1461661613750662,4,3,6,1,-2,-6,1,29
1461661613750662,-1,-17,3,10,10,8,6,-9
1461661613757696,-14,-53,-4,-5,-5,-7,-3,-18
1461661613757696,2,-43,16,2,-4,4,5,1
1461661613773685,5,-16,-55,-3,1,-6,-3,-6
1461661613773685,-1,2,11,-2,1,-1,3,16
1461661613775687,-8,-9,47,4,-3,-9,-4,-14
1461661613775687,-5,-35,-38,-5,-5,-1,-9,-27
1461661613787695,11,-14,4,3,1,0,10,0
1461661613787695,0,-25,-2,-6,0,-3,5,10
1461661613796701,-10,-36,7,5,-2,-3,-8,-18
1461661613796701,11,11,30,4,-3,2,-2,0
1461661613810711,-5,-49,-43,-15,-2,0,-2,-11
1461661613810711,-3,-28,-10,4,8,2,4,-1
1461661613817729,-8,4,16,7,-4,-8,-7,-6
1461661613817729,1,-11,-20,-5,-5,0,-3,-7
1461661613833739,12,13,45,5,2,0,5,5
1461661613833739,-5,-10,-27,-1,-1,-3,-4,0
1461661613834724,-4,-14,1,-3,-4,-18,-4,2
1461661613834724,-5,-21,-8,-5,-6,20,9,-3
1461661613847741,4,1,5,-7,-3,4,1,2
1461661613847741,0,7,12,13,7,9,6,10
1461661613854773,-2,2,-2,-5,-4,-5,-3,-3
1461661613854773,-4,-1,0,2,-1,-9,-7,-3
1461661613870784,4,13,30,3,1,-6,1,9
1461661613870784,-2,-4,-35,-8,-3,-3,-6,-3
1461661613876788,6,17,25,9,1,3,0,3
1461661613876788,-3,-1,4,-9,-4,-10,-6,-3
1461661613893779,1,-3,-43,2,1,4,1,4
1461661613893779,7,19,26,11,5,-3,-1,2
1461661613894779,-2,-3,-51,-7,-1,4,-2,-6
1461661613894779,-2,4,38,-9,-5,-4,-2,-2
1461661613908798,4,14,10,6,0,0,0,-1
1461661613908798,-2,5,-4,12,6,-1,2,1
1461661613915802,-6,-3,-9,-1,2,0,-2,-3
1461661613915802,3,9,-8,2,-1,-2,-1,1
1461661613930812,1,9,7,-6,-3,0,-2,2
1461661613930812,2,11,13,-8,-5,-3,-2,1
1461661613936804,3,8,-3,-3,-3,-2,-4,5
1461661613936804,-2,-6,-26,-4,-4,2,-1,1
1461661613954803,4,6,11,1,3,2,2,3
1461661613954803,-1,7,11,1,-1,1,0,4
1461661613956806,-3,-1,-6,-6,-2,1,-3,1
1461661613956806,0,-4,-22,9,-1,-4,-3,0
1461661613967813,-1,-11,-46,-9,-2,0,-2,2
1461661613967813,1,15,34,-8,-1,0,0,1
1461661613983864,-1,1,-1,-3,1,0,0,1
1461661613983864,-2,7,-12,3,-1,-2,-2,0
1461661613990832,3,12,15,7,4,0,0,1
1461661613990832,-2,-2,-9,-10,-6,-3,-2,-2
1461661613996854,-6,-2,8,1,1,-1,-2,-6
1461661613996854,1,-3,-8,0,-2,-2,0,-2
1461661614013856,0,3,20,5,2,-2,0,0
1461661614013856,0,6,-4,0,1,-4,0,-1
1461661614014870,-4,-3,-19,-3,-4,5,-2,-4
1461661614014870,0,-9,-17,-2,1,2,1,1
1461661614028011,-2,-2,-8,-1,-2,-7,-3,1
1461661614028011,-4,-9,6,-5,-4,-7,0,1
1461661614034973,-2,5,7,-1,-4,3,1,-1
1461661614034973,1,2,-11,-2,1,-1,-1,1
1461661614049981,1,0,15,-2,-3,4,0,1
1461661614049981,1,-2,-17,3,2,-1,-3,3
1461661614064992,-2,-3,28,0,-1,-5,-2,-1
1461661614064992,-1,0,-11,-10,-2,1,-1,-3
1461661614073979,3,22,25,-2,-2,2,1,1
1461661614073979,-6,-4,5,3,0,2,-1,-5
1461661614074999,-1,-5,-49,-7,-3,-1,-1,0
1461661614074999,-2,-8,10,3,2,0,-1,-1
1461661614086989,2,8,9,6,-1,-3,-3,-2
1461661614086989,-5,-20,-2,-3,-3,0,1,-4
1461661614095995,0,2,17,-2,1,0,0,-3
1461661614095995,0,2,5,2,-2,-4,-2,0
1461661614110004,0,-2,-9,-3,-1,-2,0,0
1461661614110004,-1,2,-10,-2,-2,-1,-1,0
1461661614117021,0,0,0,-6,-3,5,2,-2
1461661614117021,0,-3,-15,3,0,-3,-2,-1
1461661614134053,-2,-5,4,-2,-1,0,-1,-2
1461661614134053,4,9,15,2,-2,-4,-2,-4
1461661614135022,-2,-7,-15,-4,-1,-4,-3,-2
1461661614135022,1,3,3,-3,-1,2,0,0
1461661614147090,-6,-9,-3,-7,-2,2,0,1
1461661614147090,-2,0,-11,4,0,1,-2,1
1461661614156049,0,5,14,-4,-2,-3,-2,-2
1461661614156049,-1,2,7,-4,-4,-2,-1,-3
1461661614170061,0,-3,-3,4,1,-2,-2,-3
1461661614170061,1,0,0,3,3,2,-1,0
1461661614177111,-4,-1,-5,-9,-8,-5,-3,-1
1461661614177111,0,6,2,2,7,2,-2,0
1461661614194080,-1,-6,-4,-2,-4,-3,0,0
1461661614194080,-3,3,8,-1,-2,-1,0,-1
1461661614195083,0,-5,-4,1,-2,-2,-1,0
1461661614195083,-4,-6,3,-4,-7,-6,-4,-1
1461661614207072,1,3,-8,1,0,-1,-2,-1
1461661614207072,0,-2,-27,-6,-2,0,0,-1
1461661614216097,-3,0,12,1,0,-5,-1,-1
1461661614216097,-1,-4,-12,-4,-3,1,1,-4
1461661614231149,1,3,7,4,2,1,1,3
1461661614231149,2,-1,-5,-1,0,2,-2,0
1461661614237106,1,1,0,1,-1,-1,-1,-1
1461661614237106,0,1,-8,0,0,-1,1,-2
1461661614252105,1,5,19,0,-1,-1,0,-2
1461661614252105,-2,-3,-3,-3,-2,-2,-3,-1
1461661614261126,-1,-2,-6,1,0,0,-2,-1
1461661614261126,1,5,4,-2,0,-1,-3,-1
1461661614277142,-1,0,-4,6,2,2,1,-1
1461661614277142,1,6,12,-3,-2,-1,1,-1
1461661614279123,-2,-14,-4,3,0,0,0,-2
1461661614279123,-1,5,-6,3,0,-1,-1,-2
1461661614290131,-1,-8,-15,-7,-3,-2,-2,-1
1461661614290131,0,1,-5,-9,-1,-2,-2,-2
1461661614298156,3,6,16,7,3,0,0,2
1461661614298156,2,5,16,6,5,4,-1,0
1461661614313181,-1,-5,-6,6,3,2,-1,1
1461661614313181,2,0,7,4,-2,-3,-1,-2
1461661614315149,-6,-5,-6,-6,-6,-3,-2,-4
1461661614315149,-2,-7,-8,-8,1,-1,0,2
1461661614327217,1,0,-6,0,-1,-1,0,-1
1461661614327217,-3,-2,15,-2,-2,-1,-1,-1
1461661614345186,0,1,-9,2,-1,-1,0,0
1461661614345186,-1,-1,-1,3,-4,-3,-3,-1
1461661614350234,-4,-13,-14,-8,-4,1,-2,-3
1461661614350234,-1,2,7,-1,-2,-1,-1,-1
1461661614357204,-1,-1,-5,-2,-1,-3,-1,-1
1461661614357204,-4,-9,-7,-4,-2,1,-1,-2
1461661614373261,1,4,0,-2,-1,-2,0,0
1461661614373261,-5,-5,-4,-1,-3,-2,-2,-2
1461661614380197,-4,1,2,-4,-3,-2,-3,-2
1461661614380197,2,3,13,7,0,-2,1,0
1461661614387218,-3,-2,-8,-1,-3,-3,-1,-2
1461661614387218,0,1,-5,3,-1,0,-3,-4
1461661614396208,1,1,-14,-3,-1,-2,-2,-1
1461661614396208,-3,-10,1,-17,-7,-3,-2,-3
1461661614410234,-1,-1,-3,1,3,2,2,-1
1461661614410234,2,2,-19,1,2,1,0,-1
1461661614417281,-2,3,39,1,2,0,-2,0
1461661614417281,-1,-5,-13,1,-4,-5,-1,0
1461661614433292,2,6,-4,-3,-4,0,0,0
1461661614433292,-4,-13,-11,-9,0,-5,-1,0
1461661614439237,-6,-14,-17,-4,-3,4,-1,-2
1461661614439237,2,7,6,3,-1,0,-3,1
1461661614447302,-2,4,7,-1,-2,0,-1,0
1461661614447302,1,7,5,2,-1,-2,-1,-1
1461661614456249,-2,2,0,-2,-2,-4,-1,-2
1461661614456249,-1,3,-3,1,-1,1,-1,0
1461661614470260,-1,-3,-15,-4,0,2,-2,1
1461661614470260,-6,-5,18,3,-3,-1,-2,-3
1461661614477266,-2,1,1,-1,2,-2,-1,-3
1461661614477266,-2,-7,-10,-2,0,-2,-1,-2
1461661614500282,-2,-4,3,-4,-3,-3,-1,-2
1461661614500282,0,3,1,-3,-1,0,0,1
1461661614509287,0,0,-2,-1,-5,-2,-1,1
1461661614509287,-5,0,6,-7,-6,-3,-1,-5
1461661614510288,3,3,10,6,10,0,0,-1
1461661614510288,-4,-8,-17,-3,-2,-2,-1,-2
1461661614516291,0,1,-10,-3,0,-1,1,-1
1461661614516291,4,6,7,1,-1,0,0,2
1461661614530302,0,-1,1,-3,-4,-4,-3,0
1461661614530302,-3,-3,5,-2,-2,-1,0,-2
1461661614537306,3,6,-2,2,-2,-1,-1,1
1461661614537306,-3,-6,-7,-3,1,1,-1,1
1461661614561324,-7,-14,7,-4,-4,-4,-2,-3
1461661614561324,-1,-3,-4,-2,-1,1,-3,-1
1461661614562324,-3,-5,-5,-3,-2,-3,-1,-1
1461661614562324,3,3,-1,4,2,-1,-1,0
1461661614575334,1,3,-14,-2,-1,1,-1,1
1461661614575334,-2,-1,2,-3,-4,-1,0,-2
1461661614576334,1,1,-4,3,2,-2,-1,-1
1461661614576334,-1,-4,-8,-2,1,-1,-1,0
1461661614591344,1,4,22,1,-3,-2,-1,1
1461661614591344,-1,-3,-16,-2,2,0,-1,-2
1461661614597408,-1,-1,-6,-1,0,2,0,-2
1461661614597408,-2,-11,-11,-6,-1,-1,-1,-2
1461661614613424,-2,-4,-8,-1,-2,-1,0,-2
1461661614613424,1,6,19,4,1,-1,-1,0
1461661614619366,-2,4,11,4,1,-2,-2,0
1461661614619366,-4,0,-9,-6,-5,-3,-2,-2
1461661614635376,0,4,-2,2,-5,-3,-3,-1
1461661614635376,-1,-3,-8,2,5,1,2,1
1461661614636377,-1,1,0,-4,1,0,0,0
1461661614636377,1,5,7,3,2,0,0,1
1461661614651387,0,-4,9,-2,-1,0,-1,-2
1461661614651387,-5,-6,-16,-10,-5,-3,-2,-4
1461661614657403,-3,-5,0,-2,-5,-2,-3,-4
1461661614657403,0,-1,-4,-4,-1,-2,1,-1
1461661614673419,0,3,6,5,2,0,0,-1
1461661614673419,-1,1,4,1,-2,-1,-1,-2
1461661614680427,-2,0,-4,-1,1,1,-1,-1
1461661614680427,-1,2,5,2,-4,-2,-1,-1
1461661614695477,-1,1,-13,-1,0,-2,-1,0
1461661614695477,-1,4,26,0,-2,1,-1,-1
1461661614696421,-3,-10,-15,-2,-1,-3,-1,-2
1461661614696421,-4,-4,6,4,0,-1,0,-1
1461661614711435,-1,-4,-11,-6,-2,-1,-1,-1
1461661614711435,1,4,3,-3,-1,-2,-1,0
1461661614717493,0,-1,1,2,0,-1,-2,-1
1461661614717493,2,-1,-2,0,0,0,-1,-2
1461661614732591,1,1,-3,-3,0,0,1,1
1461661614732591,-1,0,-1,-1,-2,-1,-2,-1
1461661614739550,1,8,16,5,2,0,0,-1
1461661614739550,-2,-12,-25,-3,1,-1,-1,0
1461661614756580,-3,-2,4,1,-1,-1,-1,-3
1461661614756580,0,-6,-14,-3,-2,-2,-1,-2
1461661614757564,-1,3,17,-5,-3,-1,0,-1
1461661614757564,-2,0,-14,-2,-1,-2,-1,-2
1461661614771639,-3,-4,1,-12,-5,-1,-2,-2
1461661614771639,-2,-5,-16,8,4,0,0,0
1461661614785621,1,3,-2,3,2,-1,-3,1
1461661614785621,0,2,29,-2,-3,-2,0,-1
1461661614792636,1,-1,-12,0,-2,-1,1,0
1461661614792636,0,-3,-2,-11,-5,-1,-2,1
1461661614799687,0,-2,-15,-1,-4,-1,-1,-1
1461661614799687,-1,3,19,3,2,0,-1,0
1461661614815699,-4,-9,-16,1,0,-1,-1,-1
1461661614815699,1,0,5,-1,-3,-1,-2,-2
1461661614816655,1,2,-6,-1,-2,0,1,1
1461661614816655,-2,-4,-6,-3,-1,-3,-3,-1
1461661614831683,5,15,9,5,0,0,1,1
1461661614831683,-7,-18,-26,-9,-4,-3,-3,-4
1461661614837656,-2,-5,-4,-5,-2,-2,-1,-1
1461661614837656,-1,4,1,-1,0,2,0,0
1461661614852666,0,2,0,2,1,0,-1,1
1461661614852666,-1,8,17,9,3,0,-2,0
1461661614859692,-2,-5,-4,-4,-1,-1,-2,-3
1461661614859692,-1,-1,8,2,-3,-1,-1,-1
1461661614875755,4,1,-10,-1,-2,-1,0,0
1461661614875755,-1,0,-2,-8,-4,-2,-2,-2
1461661614876685,-1,-2,0,0,5,3,-1,0
1461661614876685,2,0,-1,9,2,0,0,1
1461661614899705,-2,-5,-3,-5,-1,-2,-3,-1
1461661614899705,0,4,18,-1,-6,-3,-1,-3
1461661614900700,-3,-4,-5,-3,-2,-1,0,-1
1461661614900700,0,-3,-14,-7,-1,0,0,-1
1461661614912709,0,-2,-5,1,3,-1,-1,-2
1461661614912709,-3,-2,0,0,-2,-1,-2,-2
1461661614919719,-1,-2,-10,-3,-2,-1,-1,-2
1461661614919719,-2,0,7,0,-1,-1,1,0
1461661614935727,-2,-5,-15,2,0,-2,-1,-1
1461661614935727,-2,4,-3,-2,0,-1,-2,0
1461661614935727,1,5,20,2,-1,0,-1,-1
1461661614935727,1,3,6,-2,0,0,-2,1
1461661614950737,-3,0,6,-3,1,0,-1,-2
1461661614950737,-1,-3,-3,-1,-1,-1,-1,-1
1461661614956740,-1,-1,2,2,0,-1,0,1
1461661614956740,-1,-3,-12,-6,-8,-3,-1,-4
1461661614971750,-1,0,20,5,5,1,0,0
1461661614971750,-1,3,3,2,0,-1,-1,-1
1461661614979756,-3,-9,0,-3,-3,-3,-2,-3
1461661614979756,0,0,-2,0,-1,-1,0,0
1461661614995768,-1,2,4,2,-2,-1,-1,0
1461661614995768,3,3,-8,1,-1,-1,0,0
1461661614995768,-1,-4,-3,-5,-5,-3,-1,0
1461661614995768,-2,1,1,5,4,0,-1,-2
1461661615010818,-1,-4,-9,-5,0,-2,-1,-1
1461661615010818,-1,-3,-3,-5,-3,-1,-2,-1
1461661615016822,3,1,-7,6,4,0,2,0
1461661615016822,2,-1,0,1,0,1,-1,0
1461661615031833,0,3,8,0,-2,-2,-2,-1
1461661615031833,-3,-2,2,-2,-1,-2,-1,-2
1461661615039816,-2,-2,-4,-4,-5,0,-2,-1
1461661615039816,-1,-2,-2,-6,-1,-2,0,0
1461661615055828,-1,-1,5,2,1,0,0,0
1461661615055828,-4,-2,-6,-1,-1,-2,-1,-2
1461661615062815,0,3,2,-2,-1,0,-3,-1
1461661615062815,-1,-4,-13,-3,-2,0,-2,-2
1461661615070838,-1,0,6,-3,-2,-1,-1,-1
1461661615070838,-2,-4,-14,-3,-1,1,0,-1
1461661615102844,-1,1,-4,4,0,1,0,-1
1461661615102844,2,6,11,-4,-2,-1,-2,0
1461661615103845,-1,-2,-8,2,-1,-2,-1,-2
1461661615103845,-2,-3,6,-4,-2,-2,-1,-2
1461661615104853,0,1,4,1,0,0,-2,-1
1461661615104853,-1,-1,-3,0,0,0,-1,-2
1461661615115861,-2,-6,-7,-1,-1,-2,-1,-1
1461661615115861,-1,3,13,-3,0,0,-1,-1
1461661615115861,0,-2,-21,-1,-2,-2,-1,-1
1461661615115861,-4,-3,10,-4,-3,-1,0,-1
1461661615130893,-1,4,3,-1,-2,-1,-2,0
1461661615130893,-2,0,-6,1,-1,-2,-1,-1
1461661615136883,-3,-3,-5,-3,0,-1,0,0
1461661615136883,4,2,5,2,0,-1,-2,-1
1461661615153880,1,-1,2,-3,-2,-1,0,-2
1461661615153880,-3,-6,-8,-2,-2,-3,-3,-4
1461661615159887,-2,-1,-4,-4,-1,0,-1,-3
1461661615159887,-2,-3,-17,3,0,1,0,1
1461661615175911,-2,0,4,2,2,0,-1,1
1461661615175911,1,-1,1,2,1,-1,-2,0
1461661615175911,-1,-4,-7,-3,-4,-3,1,0
1461661615175911,-2,-1,-1,1,2,1,-1,-2
1461661615199913,0,2,9,-4,-3,-2,-2,-2
1461661615199913,0,-4,-3,1,3,1,-1,-1
1461661615199913,0,2,7,2,-1,-1,-1,-1
1461661615199913,0,3,7,9,3,-1,0,-1
1461661615213924,-2,-6,-34,-12,-4,0,0,-1
1461661615213924,-1,-8,-2,-2,-1,-2,-2,-1
1461661615220079,-1,0,16,-4,-4,-2,-3,-1
1461661615220079,-1,-1,-3,3,0,-2,1,0
1461661615235034,0,3,2,2,-2,-2,-1,-1
1461661615235034,-1,-2,3,-1,-1,-1,-1,1
1461661615237035,0,-5,-20,0,1,-1,-1,-1
1461661615237035,-1,2,12,-8,-2,-2,0,1
1461661615251059,-1,-1,13,2,1,1,1,-1
1461661615251059,0,2,-1,0,-2,-1,-1,-2
1461661615257061,0,5,17,4,0,0,0,-1
1461661615257061,-1,-4,-20,-6,-3,0,-1,-2
1461661615274059,0,-2,1,-1,-1,-1,0,-1
1461661615274059,-4,-1,-5,-2,-3,0,-1,-2
1461661615280122,0,1,9,5,2,0,0,-1
1461661615280122,-1,-4,-7,-3,-1,-2,1,-2
1461661615295088,-2,1,4,-3,-2,0,-1,0
1461661615295088,-2,-4,-4,-5,-3,-1,-3,-3
1461661615296089,-1,1,-8,2,2,1,-1,0
1461661615296089,-2,0,-7,-6,-4,-1,-2,0
1461661615311084,-2,-3,6,7,3,-2,-2,0
1461661615311084,-1,1,-4,-1,-1,-1,0,-2
1461661615317148,1,1,2,-6,-2,-2,0,0
1461661615317148,1,1,14,5,-1,-1,-1,0
1461661615334119,-1,-1,-1,-3,-2,1,-1,-1
1461661615334119,-3,-6,-19,0,0,-2,-1,-3
1461661615340116,1,1,10,-1,-1,-1,-1,-1
1461661615340116,1,2,-9,-1,1,-1,-1,1
1461661615355128,2,-2,-10,-2,-1,0,1,0
1461661615355128,-2,-2,-1,3,-1,-2,-1,0
1461661615362182,0,1,-1,-3,-1,1,0,0
1461661615362182,-2,0,12,2,-2,0,-1,-1
1461661615378190,-2,-7,-15,0,0,-1,-2,-2
1461661615378190,-2,0,6,-5,-2,-2,0,-3
1461661615379134,-3,-6,-13,-5,-3,-2,-3,0
1461661615379134,-1,6,7,5,1,-1,0,-1
1461661615402152,-2,-11,-12,-6,-5,-2,-1,0
1461661615402152,2,1,3,3,1,0,-2,-1
1461661615403158,-4,-3,-11,-6,-2,-2,-3,-3
1461661615403158,-4,-6,-15,-6,-2,1,0,-1
1461661615415189,1,2,1,1,-3,-2,-2,-2
1461661615415189,1,2,12,11,6,0,0,0
1461661615422192,0,-2,-7,2,0,-1,0,0
1461661615422192,-2,-2,1,0,0,-1,-1,-1
1461661615438227,2,3,3,-6,-3,1,0,0
1461661615438227,-1,-3,-12,-13,-6,-1,-1,-1
1461661615439192,1,1,9,8,0,-2,0,1
1461661615439192,2,3,-3,0,2,1,0,-1
1461661615454189,-3,-2,6,-2,-2,-3,-1,-2
1461661615454189,-2,-4,-6,-1,-3,-2,-2,2
1461661615460189,0,2,8,-1,-1,1,0,1
1461661615460189,-2,-7,-17,-5,-3,-2,-3,-2
1461661615475232,-1,0,-5,2,2,-1,-2,0
1461661615475232,0,-1,4,-2,-2,0,1,-1
1461661615482222,0,6,6,-8,-4,-3,0,-2
1461661615482222,-1,-1,2,0,-2,0,-1,-2
1461661615498233,-2,-2,8,3,1,0,-1,-2
1461661615498233,0,2,-7,-1,-3,-2,-1,-3
1461661615499220,-2,-2,5,3,-1,0,-1,-1
1461661615499220,0,0,6,-3,-1,-1,0,1
1461661615514245,1,2,-2,1,0,-1,-2,-1
1461661615514245,0,2,12,2,1,2,-1,0
1461661615520251,-3,-8,-3,-5,-4,-3,-3,-2
1461661615520251,-3,2,7,-5,-1,-4,-2,-1
1461661615535247,1,-2,8,4,2,-2,-1,-1
1461661615535247,-4,-12,-48,-8,-5,-3,-5,-1
1461661615542260,-2,1,5,2,0,1,0,0
1461661615542260,2,0,-8,-2,-2,2,0,0
1461661615558291,-2,0,1,-1,2,0,1,-1
1461661615558291,-2,2,23,1,0,-1,-3,-1
1461661615558291,2,-4,0,-2,0,0,-1,0
1461661615558291,-4,-2,-6,4,-1,-2,-1,-1
1461661615580334,0,-1,-11,-13,-8,-2,0,-1
1461661615580334,0,1,4,6,6,1,-1,-1
1461661615581276,1,1,-3,1,0,0,-1,-1
1461661615581276,0,-3,7,1,2,1,0,-1
1461661615595301,1,1,-3,1,0,1,-1,-1
1461661615595301,-3,5,14,1,-3,-3,0,-2
1461661615602293,-1,-4,-7,1,2,2,-1,1
1461661615602293,1,-3,-19,0,0,-1,1,-1
1461661615618317,-2,-5,-2,-5,-1,-1,0,-1
1461661615618317,1,-3,-4,3,0,0,-1,-2
1461661615618317,1,6,6,-11,-8,-5,-2,-2
1461661615618317,1,3,1,9,2,1,-1,-2
1461661615648472,0,6,4,8,5,-1,-1,-2
