timestamp,emg1,emg2,emg3,emg4,emg5,emg6,emg7,emg8
1461661999133028,-1,-1,0,0,0,-2,-1,-1
1461661999133028,-4,-6,-9,-3,-4,-1,-2,-3
1461661999142034,0,1,10,-3,-2,-1,-2,0
1461661999142034,1,5,3,6,1,1,1,1
1461661999156043,-2,-13,-13,5,4,0,1,0
1461661999156043,-4,2,8,1,1,-2,-4,-5
1461661999164050,-2,-2,-10,-7,-2,-3,-2,-2
1461661999164050,5,4,5,-4,-2,0,1,1
1461661999179061,4,4,1,-1,1,1,3,5
1461661999179061,-9,-1,4,-3,-4,-2,-4,-6
1461661999180060,-5,-4,-1,5,-1,-1,-2,-3
1461661999180060,2,0,0,-2,-1,-2,-1,-1
1461661999193071,5,5,-2,0,-1,3,1,4
1461661999193071,-4,-4,-3,-3,-2,-2,-4,-2
1461661999201075,-5,-4,-8,-6,-4,-2,-3,-4
1461661999201075,0,-4,2,0,-1,-1,-1,0
1461661999216104,5,8,7,1,1,0,1,4
1461661999216104,-5,-2,-2,-1,-2,-3,-2,-4
1461661999224092,-2,-2,6,-1,-2,-1,-3,-4
1461661999224092,1,-1,-12,2,1,0,0,1
1461661999247167,3,4,6,-2,-1,0,2,2
1461661999247167,-4,-7,-3,0,-1,-1,-2,-3
1461661999248112,-2,-1,3,0,0,-2,-1,-2
1461661999248112,-2,-4,-1,-1,0,1,-1,0
1461661999253127,3,4,-11,-5,-3,-2,0,1
1461661999253127,-3,1,23,0,-1,-3,-2,-2
1461661999261177,-3,-6,-17,3,0,-1,-1,-2
1461661999261177,1,2,7,1,-2,-2,-1,0
1461661999276162,-2,0,0,-3,-2,-1,0,1
1461661999276162,-1,1,6,-2,0,0,-1,-1
1461661999284144,-1,-4,-13,-1,-2,-1,-1,-2
1461661999284144,2,3,3,1,3,2,-1,1
1461661999299154,0,2,-1,-2,1,-1,0,-1
1461661999299154,-3,0,-8,3,0,-1,-2,-1
1461661999300148,-1,-1,4,-5,-2,-1,0,-1
1461661999300148,0,-1,4,2,0,-1,-1,-3
1461661999313184,-3,-6,-9,0,0,2,0,1
1461661999313184,-1,-4,-7,-4,-1,0,-1,0
1461661999321170,-1,3,0,-2,-3,-1,0,-2
1461661999321170,2,6,-17,-3,-1,-1,1,-1
1461661999336202,-2,-11,1,1,0,-3,-1,-3
1461661999336202,-3,-3,-11,-3,-2,-3,-2,-1
1461661999344192,0,1,10,0,-1,-1,0,0
1461661999344192,-6,-5,-8,-2,-1,-1,-1,-3
1461661999359203,0,-2,-5,-2,-1,-1,-2,0
1461661999359203,-4,-6,-5,-5,-2,-3,-3,-2
1461661999359203,-1,1,5,0,-3,-2,-2,-1
1461661999359203,0,-1,1,2,-1,-1,1,1
1461661999373236,2,8,7,0,1,0,0,0
1461661999373236,-1,-3,6,-3,-2,0,-2,-2
1461661999381204,0,1,0,-3,0,-1,-2,0
1461661999381204,-2,0,4,2,-1,-1,0,0
1461661999395225,0,1,0,1,-2,-2,-1,0
1461661999395225,-2,-6,-15,-4,-2,0,0,-1
1461661999420232,0,0,17,7,3,0,0,-4
1461661999420232,-2,-6,-6,-2,-3,-1,-2,0
1461661999422234,-3,-4,2,-2,0,-2,0,-3
1461661999422234,0,4,-2,-2,-2,-2,-1,-2
1461661999422234,1,1,-9,-2,-3,-2,-1,1
1461661999422234,0,-5,4,2,1,0,0,1
1461661999433252,-1,2,3,-3,-3,0,-2,0
1461661999433252,-2,-1,1,-4,-2,-1,-2,-2
1461661999441259,-2,-5,-2,4,0,-1,0,-3
1461661999441259,2,2,9,1,0,1,1,0
1461661999455254,-2,-1,-4,-5,-4,-2,-2,-1
1461661999455254,-3,-9,-8,12,7,2,1,-1
1461661999464264,2,3,-7,-4,-2,-2,-2,-1
1461661999464264,0,-2,3,-1,0,0,0,0
1461661999479273,-2,-5,-5,0,0,0,-1,-1
1461661999479273,1,9,9,-2,-2,-1,-1,0
1461661999479273,0,-7,1,-1,-1,0,-1,1
1461661999479273,-1,4,-2,-5,-3,-3,-2,-1
1461661999493297,-1,5,-3,-4,-2,0,-1,0
1461661999493297,-4,-5,2,-1,-2,0,0,-3
1461661999501300,-3,-5,-12,-4,0,-2,-2,-3
1461661999501300,-1,-6,8,-1,-2,-1,0,-2
1461661999524333,1,-1,-5,2,1,-1,0,0
1461661999524333,-2,3,5,0,0,-1,-3,-2
1461661999525334,-3,-7,-18,-6,-2,-2,-2,-2
1461661999525334,-3,-6,16,-3,-1,-2,0,1
1461661999539348,1,2,11,2,1,-1,-2,1
1461661999539348,0,-1,-1,0,-2,-3,-1,0
1461661999539348,-2,1,-8,-3,-2,-1,0,-2
1461661999539348,0,1,0,0,-2,-1,-2,-2
1461661999553327,1,-1,-9,-1,1,1,1,-1
1461661999553327,-2,-1,-1,-4,-2,-3,0,-1
1461661999561333,-1,5,16,2,-1,-2,-1,0
1461661999561333,-1,-4,-15,0,1,0,0,-1
1461661999575341,-3,-4,2,1,-1,-1,0,0
1461661999575341,-1,-2,-6,-3,-2,-1,0,0
1461661999584346,-5,-3,-4,-2,0,1,-1,-3
1461661999584346,2,7,5,-1,-1,-1,0,0
1461661999598357,3,2,-4,-1,-2,-2,-1,-2
1461661999598357,-3,-10,-12,-2,-2,-1,-2,-2
1461661999599357,-1,-3,-8,-2,0,0,-2,-1
1461661999599357,2,12,-1,-4,0,-1,0,0
1461661999613425,-3,-10,10,8,1,0,0,-2
1461661999613425,2,5,-1,1,0,-2,-2,-1
1461661999621432,2,0,4,1,-1,0,-2,0
1461661999621432,0,3,-3,-3,-1,-4,0,-1
1461661999635441,-1,1,-13,-4,-3,-1,0,0
1461661999635441,-3,-8,4,-6,-5,-1,-2,-1
1461661999644405,0,-2,1,7,2,-1,-1,0
1461661999644405,-1,3,-6,3,2,1,-2,0
1461661999658458,-1,4,9,-1,-1,0,-1,-1
1461661999658458,-2,-3,0,-3,-2,-1,-3,-2
1461661999659405,-2,-1,4,-4,-4,-2,-1,-2
1461661999659405,1,-8,-10,-2,-3,-1,-2,0
1461661999673411,-1,-3,-1,0,0,-1,-3,-2
1461661999673411,-1,4,1,-2,-1,-1,-1,-2
1461661999688437,0,3,0,-2,0,-2,-1,1
1461661999688437,-1,-7,0,-2,0,0,-1,-1
1461661999695484,-2,-4,-1,-2,-2,-2,-1,-2
1461661999695484,-1,5,-4,3,2,0,0,-2
1461661999704462,1,-2,1,0,-1,-1,-2,1
1461661999704462,-3,1,1,-1,-3,-1,-2,-3
1461661999727482,-1,3,2,-5,-2,-1,-1,-1
1461661999727482,-4,-3,9,0,2,0,-1,0
1461661999727482,0,8,-3,-1,-2,-1,1,0
1461661999727482,1,-12,-5,-1,-1,-1,0,0
1461661999733468,-4,-5,0,-2,-2,-2,0,-4
1461661999733468,-1,3,4,-2,-3,-2,-2,-1
1461661999741473,0,-5,-2,-4,0,0,0,-2
1461661999741473,-1,1,-13,0,-1,-1,-1,0
1461661999755483,0,0,6,-2,-4,-2,-1,-1
1461661999755483,0,1,-1,-1,0,0,0,0
1461661999763513,-2,-3,3,-2,-2,-1,-1,-3
1461661999763513,2,4,2,2,0,-1,0,-1
1461661999778497,-2,-6,-16,-3,0,-1,-1,-1
1461661999778497,-1,2,2,-4,-2,-2,-1,-2
1461661999779484,0,-4,2,1,-2,0,2,0
1461661999779484,-1,0,-6,0,0,-1,0,0
1461661999801517,2,3,-4,-1,-1,0,-3,-1
1461661999801517,-1,-10,9,-1,-1,0,-1,0
1461661999802509,0,2,-4,-3,-1,-2,-1,-2
1461661999802509,-5,-11,1,-1,-1,1,-1,-1
1461661999815524,-2,2,-2,0,-2,-1,-1,-1
1461661999815524,3,2,-8,0,-2,0,1,-2
1461661999823528,1,5,6,2,-1,0,0,0
1461661999823528,-4,-16,-2,0,0,-1,0,-1
1461661999838585,-3,4,9,1,0,-2,-2,1
1461661999838585,-6,-17,-17,-2,-1,0,-2,-2
1461661999839527,-1,4,-4,-1,-2,-2,-1,0
1461661999839527,0,9,6,-3,-1,-1,0,-1
1461661999853549,-1,-5,0,3,0,-1,0,-3
1461661999853549,3,6,5,0,0,-1,-1,1
1461661999861601,-1,-5,1,0,-1,-1,0,-2
1461661999861601,0,-1,-11,-3,-2,-2,-1,1
1461661999875611,-4,-5,-9,-7,-3,1,0,-2
1461661999875611,-2,6,6,5,4,-1,-1,0
1461661999883572,-1,-7,-13,-3,0,-1,0,0
1461661999883572,3,12,6,2,2,0,1,1
1461661999898571,-6,-24,3,-4,-3,-2,-4,-1
1461661999898571,-2,-2,-9,-5,-4,-3,-1,-1
1461661999906581,-2,-3,11,-3,-3,-1,-2,-2
1461661999906581,1,-4,2,5,1,1,0,-1
1461661999913613,0,3,-3,-2,-2,-2,-1,-1
1461661999913613,-3,1,0,2,0,-1,-1,-1
1461661999921616,-1,2,-2,-6,-2,-1,0,0
1461661999921616,0,-2,3,-3,-3,-3,-1,-1
1461661999935624,0,1,-11,6,3,0,0,1
1461661999935624,0,-3,-3,-1,-1,-3,-1,-1
1461661999943603,0,0,-6,-1,1,0,-1,0
1461661999943603,0,6,0,-3,-2,-1,-2,-2
1461661999966633,-1,5,8,-3,-2,-1,0,-2
1461661999966633,-1,-3,-2,-2,-2,-2,-1,-2
1461661999967620,1,2,5,1,-1,-1,1,1
1461661999967620,-1,1,9,-2,0,0,-1,-1
1461661999972636,1,1,-2,1,-1,-1,-2,-2
1461661999972636,-4,-8,-5,-2,-3,-2,-2,-3
1461661999981630,-2,-3,2,1,-2,-1,0,-1
1461661999981630,-3,2,-5,-2,0,-1,1,1
1461661999995652,-1,3,-1,2,1,0,-2,-2
1461661999995652,3,8,6,1,-1,-3,-1,-1
1461662000003655,-1,-7,-4,1,2,0,-1,3
1461662000003655,3,3,-20,-2,-2,-2,-1,-2
1461662000026718,-6,-9,7,-4,-4,-4,-2,-4
1461662000026718,0,-7,4,-2,-1,2,1,-1
1461662000027660,2,3,5,0,-1,-2,-1,-2
1461662000027660,1,0,4,-2,-2,-1,-2,-1
1461662000041729,2,5,-10,-5,-2,-2,-1,-2
1461662000041729,1,4,16,3,1,0,0,1
1461662000042672,-1,4,9,6,4,1,0,-1
1461662000042672,-1,-6,-8,-3,0,1,-1,1
1461662000055681,-4,-8,-1,0,0,1,-1,-5
1461662000055681,0,4,-18,-4,-1,0,-1,-2
1461662000064697,-1,6,4,-6,-5,-2,-2,1
1461662000064697,-1,-1,-1,4,-3,-2,-2,1
1461662000078702,-1,-4,-6,-2,2,-1,-2,-2
1461662000078702,-4,-8,-16,-3,-4,-4,-2,-5
1461662000087712,3,2,-7,4,5,0,0,2
1461662000087712,-3,-2,3,-7,-6,-2,-1,1
1461662000101730,-7,-17,-18,-2,-1,-2,-1,-3
1461662000101730,2,11,26,2,2,1,-1,-1
1461662000103730,-1,-7,0,-5,-4,-2,0,-1
1461662000103730,3,-2,-8,6,2,1,0,1
1461662000115738,0,5,0,-2,-5,-1,-2,-4
1461662000115738,-7,-10,-17,-6,0,-1,0,-2
1461662000124730,-2,-8,-6,2,1,1,0,2
1461662000124730,-2,7,19,-7,-4,-1,-2,1
1461662000137750,4,5,11,4,-1,-1,-2,-4
1461662000137750,-2,-4,-26,1,-1,-1,-1,-3
1461662000146759,1,2,-3,-2,1,-1,0,1
1461662000146759,0,3,7,0,-3,-3,-1,0
1461662000161757,0,1,8,-1,4,0,1,-1
1461662000161757,-1,-9,-6,-3,-3,0,-2,-2
1461662000163759,3,3,-4,1,1,-2,-1,1
1461662000163759,0,0,-3,-4,0,1,1,0
1461662000175765,-5,0,7,-4,-6,-3,-3,-2
1461662000175765,0,6,6,3,2,0,1,-1
1461662000184771,0,-11,-8,-3,-2,-1,-1,1
1461662000184771,-2,-5,-4,-2,-1,-2,0,0
1461662000197780,0,5,3,-4,-1,-1,-1,-2
1461662000197780,0,-8,-2,-1,-1,-2,0,-3
1461662000206786,-2,-2,0,1,-1,3,-1,1
1461662000206786,1,0,20,0,3,0,0,2
1461662000220796,0,0,-16,2,0,-1,-2,-2
1461662000220796,-3,5,16,-5,-1,1,0,-2
1461662000227803,-1,-4,-5,-7,-7,-3,-2,-1
1461662000227803,-4,-18,-8,-5,-2,-3,0,-3
1461662000244814,-4,-1,-4,16,8,3,1,-1
1461662000244814,2,6,15,5,-1,-3,-2,0
1461662000245817,0,5,-1,1,2,0,1,-1
1461662000245817,1,4,-4,-3,1,1,-1,-1
1461662000257822,-4,-6,-1,-13,-9,-6,-6,-3
1461662000257822,1,-5,-5,-3,-4,0,-1,-1
1461662000274836,-3,-1,-1,-2,0,-1,0,1
1461662000274836,0,2,-4,3,1,-1,0,0
1461662000280843,-5,-1,-3,-7,-3,-1,-2,-4
1461662000280843,-1,-2,0,0,-2,-3,-1,-1
1461662000297859,-2,-6,-4,-4,-3,-3,-1,-2
1461662000297859,2,8,-6,-4,-3,-1,-1,2
1461662000298858,-5,-11,-18,-22,-2,1,-2,-2
1461662000298858,3,11,15,13,-1,-1,-2,1
1461662000304863,4,4,7,17,6,3,1,1
1461662000304863,5,4,-1,-13,-8,-3,-2,-1
1461662000317871,0,4,8,19,8,1,-1,-2
1461662000317871,-6,-8,4,-5,-8,-6,-1,-1
1461662000326876,-1,-8,2,8,14,6,3,0
1461662000326876,1,0,-8,-2,0,1,-1,0
1461662000340881,0,11,-3,-19,-14,-5,-1,-2
1461662000340881,-1,-1,1,11,17,6,0,0
1461662000357908,3,13,0,-12,-12,-3,4,1
1461662000357908,5,2,-3,9,2,0,3,1
1461662000358894,-1,-5,5,-8,-2,-2,0,2
1461662000358894,-4,-6,-6,-10,-14,-3,-1,-2
1461662000364901,-10,0,-11,-34,-8,-6,-10,-2
1461662000364901,1,-3,-6,0,0,-6,-13,-1
1461662000377966,5,9,9,50,22,2,-3,-2
1461662000377966,0,-1,-7,6,1,-1,2,0
1461662000386914,3,6,1,-17,-19,-2,0,-2
1461662000386914,-10,-6,18,9,1,1,9,-4
1461662000409931,3,-7,-22,-20,11,4,7,0
1461662000409931,-6,-19,-19,3,-6,1,2,-1
1461662000410932,2,1,-3,0,8,12,21,3
1461662000410932,-8,-10,-17,-16,-19,-3,-11,-3
1461662000415936,0,18,24,34,3,-6,-6,-3
1461662000415936,10,12,-7,-14,8,-3,-16,0
1461662000430946,11,5,6,7,-7,-6,-22,1
1461662000430946,-9,-9,-1,-14,-7,-4,18,-2
1461662000437962,-20,-19,-8,-30,-23,-6,8,-4
1461662000437962,8,15,2,-71,-26,-7,-12,3
1461662000446957,-11,-27,-10,65,18,-6,-16,-10
1461662000446957,11,22,3,32,18,-2,-14,-3
1461662000460967,-10,-15,9,-12,-12,5,20,-5
1461662000460967,-2,1,-18,-18,3,18,39,10
1461662000469996,-9,-24,14,-44,-24,-10,-24,-6
1461662000469996,4,13,-14,47,50,8,-15,2
1461662000484984,-5,-25,-5,33,-5,-11,-16,-10
1461662000484984,-5,-1,5,-6,1,8,43,3
1461662000485986,6,-16,-10,31,8,9,-2,8
1461662000485986,5,25,15,7,0,0,3,-9
1461662000498001,-2,-21,-10,-12,-1,12,52,8
1461662000498001,8,15,13,7,6,2,-44,0
1461662000506999,-3,-4,-16,-32,-7,-17,-21,-10
1461662000506999,2,-2,-1,-24,-26,-13,-4,11
1461662000521028,13,23,15,-19,-8,-10,-43,-6
1461662000521028,6,15,-5,1,-3,-9,-3,9
1461662000530017,5,28,4,29,19,6,42,9
1461662000530017,3,23,15,-65,-24,-3,-6,5
1461662000536039,-6,19,3,55,19,12,-17,-7
1461662000536039,-3,45,20,28,9,-4,-8,-10
1461662000552030,-1,27,-11,-11,1,-9,-5,-1
1461662000552030,-7,-1,4,0,-19,-1,-22,-18
1461662000558094,18,-55,-2,-11,8,15,20,13
1461662000558094,2,-100,-4,26,26,1,-21,1
1461662000567043,9,-124,19,14,-19,-11,10,3
1461662000567043,-13,-77,10,-41,-15,11,32,12
1461662000581053,-22,-103,-45,-3,6,-6,-11,-14
1461662000581053,-22,-73,0,41,0,-6,24,-6
1461662000590098,1,-104,-8,-64,-18,-1,12,6
1461662000590098,-13,-128,-15,57,32,7,-8,3
1461662000596099,9,12,6,-27,-20,-12,-42,-6
1461662000596099,-16,39,8,-75,-35,-25,-51,-26
1461662000605081,14,83,0,35,24,14,49,8
1461662000605081,-2,-31,-10,58,43,33,25,14
1461662000618090,-2,8,14,-21,-11,-15,22,19
1461662000618090,19,-6,10,58,17,6,-9,13
1461662000627099,9,68,19,-54,-22,-9,-48,-21
1461662000627099,-18,33,-14,-8,0,-24,-29,-27
1461662000641157,-16,56,7,6,-2,-4,35,-2
1461662000641157,5,25,-12,-119,-39,3,25,11
1461662000650099,-16,38,7,101,60,33,24,16
1461662000650099,8,65,14,14,5,6,19,4
1461662000656103,0,45,7,-89,-32,-11,14,-3
1461662000656103,39,65,-10,84,28,9,1,35
1461662000665120,-2,56,-12,17,5,0,-57,-40
1461662000665120,-8,10,-21,-52,-19,-11,-3,-20
1461662000678126,-12,51,1,-48,-14,-14,-61,-20
1461662000678126,-12,5,63,-88,-47,-3,34,2
1461662000687135,-30,-28,-64,76,43,11,19,8
1461662000687135,34,60,-7,72,35,-13,-31,12
1461662000701139,-11,26,-15,-23,-20,-6,-11,-14
1461662000701139,7,15,-36,-20,5,2,-1,-8
1461662000710145,22,61,36,-57,-39,-9,-37,-4
1461662000710145,-26,12,26,-80,-57,-23,24,-14
1461662000716147,22,23,16,127,70,37,2,25
1461662000716147,-16,41,-32,-53,-11,12,87,1
1461662000725152,31,6,61,67,9,8,-36,16
1461662000725152,-32,-51,-53,10,-5,-44,-28,-12
1461662000739163,4,79,-26,-42,-27,-29,-13,11
1461662000739163,-19,-8,-21,56,24,14,6,-15
1461662000747168,-30,-27,14,-110,-54,6,-7,-21
1461662000747168,-6,-85,36,12,33,43,5,-5
1461662000760207,1,-88,15,-56,-11,0,4,-1
1461662000760207,41,43,-3,111,56,-2,-2,10
1461662000770186,-3,11,-11,-26,-25,-17,9,8
1461662000770186,-5,40,-10,-11,2,11,85,22
1461662000776205,5,-44,32,6,15,34,-53,-4
1461662000776205,-58,-81,-10,-86,-42,-55,-65,-42
1461662000785218,42,35,-14,79,42,1,58,43
1461662000785218,54,82,-29,-11,4,-6,-72,-27
1461662000798220,-11,54,31,-6,-25,-3,60,14
1461662000798220,-3,31,31,-49,-29,11,-16,-7
1461662000807212,-25,-27,-23,59,34,-9,-18,-7
1461662000807212,-29,62,3,-108,-50,-26,-24,14
1461662000821221,-9,-76,-28,97,52,29,44,4
1461662000821221,-4,-80,26,19,-8,14,2,-15
1461662000830229,-6,-82,12,-71,-20,22,60,-7
1461662000830229,-2,3,-58,-10,-14,-20,-4,5
1461662000844237,53,-37,-15,-46,-3,-6,-65,18
1461662000844237,9,-100,-49,89,27,-29,-26,-3
1461662000846239,45,-34,12,-110,-51,-16,-10,3
1461662000846239,-21,-44,51,126,57,30,45,-16
1461662000858249,-84,51,-18,-115,-76,-37,-69,-43
1461662000858249,-8,24,20,108,83,10,5,11
1461662000867256,14,112,-4,-39,9,23,26,4
1461662000867256,-10,110,-37,-29,-27,0,71,20
1461662000880292,115,127,34,77,2,-6,3,25
1461662000880292,-46,6,38,-128,-58,-8,-7,-21
1461662000889299,-40,-96,-54,45,-11,-11,-12,-22
1461662000889299,22,0,8,59,56,20,-34,34
1461662000895332,-56,47,-20,-55,6,5,25,-10
1461662000895332,19,-34,-33,13,6,10,-31,-21
1461662000910343,61,-7,17,-53,-27,-6,7,8
1461662000910343,-32,-128,5,-128,-69,0,39,-2
1461662000918301,19,86,-50,89,32,-16,8,-2
1461662000918301,3,127,43,64,18,-16,-61,9
1461662000927296,-63,-4,-35,-68,-19,-5,-33,-28
1461662000927296,54,-85,-46,73,24,1,46,4
1461662000940364,-18,-128,38,-111,-15,27,8,-5
1461662000940364,5,-128,-23,-79,-35,-45,-45,22
1461662000949324,83,-118,-7,127,101,-12,-35,2
1461662000949324,-86,-90,39,-109,-33,-7,-13,-2
1461662000955327,-80,-128,-65,-48,-5,34,33,-6
1461662000955327,-88,-99,-9,70,17,31,32,-34
1461662000964326,-25,-64,-32,-108,-37,-13,-9,-9
1461662000964326,126,-48,67,-1,-8,6,10,8
1461662000978391,19,-77,6,107,68,31,26,8
1461662000978391,-6,-62,6,-46,-23,2,26,13
1461662000987339,-57,-70,52,24,-7,8,70,29
1461662000987339,68,-112,-31,44,21,17,-42,-6
1461662001000348,-53,-128,-30,-33,-30,-34,-39,-22
1461662001000348,20,92,19,-3,-9,35,71,3
1461662001009416,31,112,1,-40,-17,-14,-40,-28
1461662001009416,62,63,14,-11,-25,-74,-42,71
1461662001024394,41,-93,54,-3,-5,13,44,19
1461662001024394,-40,59,-21,33,42,9,-18,-34
1461662001026368,-35,88,-25,-69,-29,-2,12,6
1461662001026368,-50,99,8,53,-15,13,-23,-34
1461662001047383,35,-70,1,60,6,-12,0,-3
1461662001047383,67,45,46,-126,-46,2,43,17
1461662001048384,-27,24,-58,67,37,13,10,-10
1461662001048384,-52,21,-2,20,30,6,-43,-26
1461662001060419,-29,-64,11,-102,-33,-17,7,9
1461662001060419,18,43,-81,-33,-20,12,3,-12
1461662001069415,-30,33,64,66,37,-5,-33,3
1461662001069415,32,20,-15,-38,-10,18,55,17
1461662001084408,40,-55,33,50,30,25,12,-15
1461662001084408,11,14,10,-34,-9,-7,31,32
1461662001086409,-21,-7,-20,-33,-32,-42,-8,1
1461662001086409,-86,-8,-2,25,20,23,-83,-8
1461662001098422,-45,-34,0,9,-6,-52,-6,-14
1461662001098422,46,27,-16,-28,-29,-33,-68,-40
1461662001107424,31,-10,1,11,2,-19,18,20
1461662001107424,-13,-9,42,-43,-21,29,81,12
1461662001120491,-25,-10,-39,-102,-14,24,3,20
1461662001120491,66,34,35,100,67,14,-32,0
1461662001129455,-6,20,-20,-50,-2,11,6,-27
1461662001129455,12,23,16,37,9,-9,-18,-12
1461662001144509,67,1,-43,-6,11,6,1,10
1461662001144509,-66,17,-31,13,-18,-9,15,-11
1461662001146465,-44,11,19,-75,-16,2,-17,-18
1461662001146465,22,27,-8,29,0,-7,6,3
1461662001158518,41,82,16,-2,-17,2,70,17
1461662001158518,-38,-89,-63,-5,20,13,-36,26
1461662001167478,22,-37,14,-33,-37,-32,-80,-51
1461662001167478,-13,-29,-16,-41,-7,32,67,45
1461662001180500,36,53,17,42,12,-27,-95,-30
1461662001180500,-49,-56,27,1,-9,-48,-60,14
1461662001189502,8,-32,-1,16,5,21,28,14
1461662001189502,41,-40,9,-4,-5,-40,-30,-17
1461662001203493,-54,64,-15,33,8,26,30,5
1461662001203493,14,-32,29,-38,-15,41,47,-5
1461662001210498,-15,-51,-1,50,40,8,9,-2
1461662001210498,14,-11,5,24,-6,3,-10,-17
1461662001218503,61,59,26,41,12,11,11,19
1461662001218503,-63,-32,-5,58,43,-5,-15,-30
1461662001241517,20,-29,-18,-55,-24,-2,11,-4
1461662001241517,-45,2,20,8,-25,-18,-10,-11
1461662001242518,51,41,-4,80,6,-8,-28,13
1461662001242518,-50,-128,4,-18,-5,36,90,9
1461662001249524,5,-102,22,25,12,34,-21,-4
1461662001249524,36,42,-20,-77,-20,-61,-111,5
1461662001263592,-70,124,2,-41,-19,-21,0,11
1461662001263592,28,127,-2,24,5,-7,-37,-32
1461662001270555,43,127,1,-6,-14,-18,39,37
1461662001270555,-25,106,3,-13,-1,-1,-9,-7
1461662001278604,-76,127,-31,1,-8,-23,-35,-14
1461662001278604,41,116,-21,-58,-37,1,26,10
1461662001287553,-41,96,30,28,21,25,13,-12
1461662001287553,-2,75,-8,-28,4,5,3,-8
1461662001300572,53,66,-5,8,43,20,24,16
1461662001300572,-8,40,-5,-29,-39,-21,-4,-20
1461662001309580,8,38,34,70,28,-3,-10,-8
1461662001309580,-2,27,-16,8,-2,3,12,-2
1461662001323595,-48,17,-16,-22,-6,3,-5,-12
1461662001323595,61,6,-13,-56,-22,-2,20,18
1461662001332583,-16,16,-20,-20,-14,-1,24,14
1461662001332583,-61,5,3,40,24,19,0,-8
1461662001338654,14,1,2,-22,-26,-53,-68,6
1461662001338654,11,3,3,27,9,-11,-18,-3
1461662001354618,53,9,7,7,-3,22,62,28
1461662001354618,-3,-3,-9,-8,8,13,-17,-23
1461662001360623,-49,0,-1,-36,-21,-9,-6,-4
1461662001360623,9,3,10,37,17,4,-4,7
1461662001385620,-6,2,-11,-58,-20,-12,0,-4
1461662001385620,0,-4,-17,-14,7,15,19,4
1461662001386622,28,2,29,61,24,11,0,-10
1461662001386622,6,0,12,25,16,-1,7,4
1461662001392625,-21,0,-15,-18,-4,-2,-18,-13
1461662001392625,-6,0,4,13,2,-21,-10,-6
1461662001398629,47,1,4,-63,-29,-2,5,-12
1461662001398629,2,-2,-22,10,17,31,28,17
1461662001407636,-39,1,9,56,14,-26,-39,-9
1461662001407636,-53,0,-3,-20,-8,-22,-24,-6
1461662001420645,-13,-1,-1,13,1,31,30,6
1461662001420645,20,6,3,-1,-4,-15,-8,14
1461662001429652,20,101,8,-4,-12,12,-8,-7
1461662001429652,30,120,-4,-4,0,-5,-3,13
1461662001442661,-55,91,-16,-8,-7,-25,-4,-13
1461662001442661,-11,65,-2,-23,-11,-4,1,-1
1461662001451667,-1,28,-15,-20,-18,-22,-12,3
1461662001451667,11,-3,11,2,3,13,14,3
1461662001458672,7,14,36,13,17,9,5,-5
1461662001458672,7,-2,-11,19,15,3,-7,-2
1461662001467678,2,42,-3,-2,3,-7,-4,-6
1461662001467678,-3,77,-26,-26,-14,5,9,-14
1461662001480690,-7,66,5,-14,-12,0,-5,-6
1461662001480690,9,81,21,6,-2,-10,-7,-6
1461662001489695,-7,11,-8,7,-2,3,-3,0
1461662001489695,6,0,6,-13,-9,-5,8,13
1461662001502714,25,-58,-8,-6,-2,2,-24,-6
1461662001502714,-47,-79,2,9,5,9,31,7
1461662001511768,-23,-71,-16,-1,-2,14,3,-2
1461662001511768,0,-81,-8,-6,-7,-19,-14,0
1461662001517725,8,-38,-7,2,-1,13,-9,-7
1461662001517725,49,-54,-1,-1,-2,0,-13,3
1461662001527736,-1,-104,12,16,1,-3,-2,3
1461662001527736,1,-108,-1,-9,3,4,21,3
1461662001540793,-13,-96,-23,-34,-34,-21,-2,-14
1461662001540793,-9,-45,20,22,29,2,-13,-2
1461662001550737,-5,-39,2,38,27,7,8,2
1461662001550737,0,-22,-4,24,7,-3,-6,-5
1461662001563765,-1,-12,16,10,9,5,8,1
1461662001563765,3,23,-33,-28,-18,-3,-5,-5
1461662001571752,3,38,4,-14,-10,-9,-6,-4
1461662001571752,0,37,4,0,-1,0,5,-11
1461662001577756,12,31,8,5,3,12,7,15
1461662001577756,18,-4,0,-7,-10,-13,-9,11
1461662001586775,-9,-34,-5,4,4,4,-11,8
1461662001586775,-33,-43,-5,-8,-9,-6,-4,-14
1461662001600801,-15,4,-5,1,-2,16,19,-3
1461662001600801,11,10,10,17,8,5,-7,-3
1461662001609808,21,13,-11,-12,-4,4,6,6
1461662001609808,-2,-27,0,2,-3,-5,-2,-7
1461662001631812,-3,-32,-3,-3,-4,-21,-7,-5
1461662001631812,3,-13,-5,-3,-3,-10,1,4
1461662001633799,4,1,6,4,2,-3,-4,7
1461662001633799,-2,-11,-2,-24,-4,9,0,-6
1461662001637817,-5,1,1,-7,9,-12,-5,-9
1461662001637817,-3,-5,1,35,14,7,-1,4
1461662001646823,-4,-1,7,0,0,2,1,2
1461662001646823,7,17,10,15,6,6,4,-8
1461662001660814,0,0,7,-12,-15,-6,-2,-6
1461662001660814,-7,-18,-10,-17,-13,-5,0,2
1461662001676890,-2,-8,-1,-5,-5,-17,-8,4
1461662001676890,0,25,-4,1,0,20,7,-7
1461662001682838,4,20,-7,1,-2,-4,3,-1
1461662001682838,-5,6,-3,-5,-5,-8,-3,4
1461662001691900,6,21,-2,3,7,15,14,11
1461662001691900,0,6,-2,-9,-4,-6,-6,-6
1461662001697855,-4,-8,-7,10,4,4,1,2
1461662001697855,2,0,10,1,1,-6,-3,6
1461662001707877,2,-4,2,-12,-7,-9,-3,2
1461662001707877,-3,-21,-42,-1,2,3,6,2
1461662001720886,-3,-15,-20,3,4,0,2,2
1461662001720886,-1,-18,-28,-7,-3,-4,-6,-12
1461662001729893,-1,6,18,-1,-3,1,-1,-2
1461662001729893,-2,1,10,3,1,5,-1,-9
1461662001743888,0,8,5,5,1,-7,0,1
1461662001743888,-1,7,14,-5,-5,-2,-2,4
1461662001751899,-2,8,-1,-3,-3,4,0,-4
1461662001751899,-1,7,-7,2,2,1,1,-3
1461662001757898,-1,2,-10,1,0,-2,-4,-7
1461662001757898,-2,-1,5,0,-2,2,2,4
1461662001766890,-1,4,-1,-5,-3,0,0,0
1461662001766890,2,10,9,4,1,-3,-3,-2
1461662001780942,-4,-9,-7,7,1,-3,-4,-4
1461662001780942,3,9,9,5,5,4,3,5
1461662001789919,-1,-5,-13,-9,-2,-4,0,3
1461662001789919,-2,-4,-2,-7,-5,-4,-4,-4
1461662001803936,0,-6,4,5,0,0,-2,-4
1461662001803936,-1,-1,0,-3,-2,-3,2,5
1461662001810946,2,-2,-2,2,-1,-2,1,1
1461662001810946,-4,-5,6,-5,-1,0,-2,-5
1461662001828964,-1,-4,2,-1,-1,-2,-3,-5
1461662001828964,0,-2,-4,-4,-5,-1,-1,3
1461662001829938,-1,-3,3,2,0,0,-1,1
1461662001829938,-2,-4,-2,0,-2,1,-3,-4
1461662001840954,-2,-2,2,2,-1,-2,-1,-2
1461662001840954,0,0,2,-2,-2,-3,-1,2
1461662001849961,-1,1,-2,2,2,0,0,0
1461662001849961,0,1,4,0,-2,-3,-1,-2
1461662001871984,-5,-6,1,0,1,-2,0,-1
1461662001871984,-1,0,1,-5,-2,1,0,1
1461662001873980,0,1,-2,0,1,-1,-1,1
1461662001873980,-2,0,0,0,-1,-1,-1,-2
1461662001878007,0,2,1,-1,-1,-2,0,0
1461662001878007,-2,0,1,0,1,0,-1,-1
1461662001886975,-1,-3,-3,1,0,0,1,-1
1461662001886975,-2,2,10,-1,-2,0,-2,-4
1461662001901005,-1,-1,-5,-3,-2,0,-1,-2
1461662001901005,-2,-3,-1,-4,-2,-1,-1,-1
1461662001910013,2,0,-1,8,5,2,0,1
1461662001910013,-2,-2,1,2,-3,-1,-1,-3
1461662001923023,0,-2,-6,-4,0,-1,-1,-1
1461662001923023,-1,-1,0,-3,-4,-2,-1,0
1461662001932007,-2,-1,-2,-7,-4,-1,1,-1
1461662001932007,-1,-3,-3,-9,-7,-4,-3,-1
1461662001947040,-2,-3,0,10,5,-1,-1,0
1461662001947040,-1,1,-1,0,-1,-1,0,1
1461662001950043,-3,-1,-1,-1,1,1,-2,-1
1461662001950043,-1,0,-2,-1,0,-1,-1,-1
1461662001961028,-1,2,-1,-5,-5,-3,0,-1
1461662001961028,1,0,2,2,0,-1,-1,1
1461662001970047,0,0,-2,-2,-3,-1,-1,1
1461662001970047,-1,-3,-4,-2,-1,-2,-2,-1
1461662001984084,0,-1,-1,-2,-1,-2,0,1
1461662001984084,2,0,0,2,-1,0,1,1
1461662001992054,-1,1,2,-3,-2,-1,-1,0
1461662001992054,-3,1,-1,1,0,-1,-2,-2
1461662002007098,0,-2,-2,1,-1,1,-1,-1
1461662002007098,-1,0,0,-1,-3,2,-1,1
1461662002009120,-3,-4,-4,-6,-4,-2,-2,-1
1461662002009120,0,-2,-5,1,2,0,-1,1
1461662002021077,-2,0,5,6,2,-2,-1,-2
1461662002021077,2,2,1,2,2,-1,-1,2
1461662002030105,1,0,-2,-4,-3,-1,-1,-2
1461662002030105,-2,-6,-1,4,1,0,-1,-3
1461662002044101,0,1,1,2,-1,-2,-1,0
1461662002044101,-2,0,2,1,2,0,-1,-1
1461662002051107,-2,-2,-2,3,-1,-2,-1,0
1461662002051107,-2,-2,-2,-3,-2,-3,-4,-2
1461662002067105,-2,1,-2,-5,-3,-1,0,-3
1461662002067105,-1,0,-2,-3,-1,0,-1,-2
1461662002073119,0,0,0,2,0,-1,-1,-1
1461662002073119,-1,-3,-4,-3,-3,-2,-2,-3
1461662002081111,0,-1,-1,-1,-2,-2,0,-2
1461662002081111,0,0,-3,-4,-2,-2,0,1
1461662002090130,-2,-1,-1,-2,1,0,-1,-1
1461662002090130,1,-1,-1,-2,-1,-1,-2,-1
1461662002104145,0,2,1,0,-3,-1,-3,-1
1461662002104145,0,1,0,3,1,-1,-2,-1
1461662002111172,-1,-3,-4,2,1,0,0,0
1461662002111172,-2,0,-3,-5,-3,-3,-1,-1
1461662002127203,1,-1,-1,4,2,-1,-1,-1
1461662002127203,-2,-1,1,0,-2,-1,0,-1
1461662002129182,0,0,1,1,-1,0,0,-1
1461662002129182,-1,0,-1,0,-1,-1,0,-2
1461662002141217,-1,-4,-4,-10,-6,-4,-2,1
1461662002141217,1,-3,-5,3,0,0,-1,-2
1461662002151163,-2,1,0,4,1,0,-1,-1
1461662002151163,-2,-2,-1,3,1,1,-2,-2
1461662002164192,0,3,0,-1,0,-3,0,-1
1461662002164192,-2,-2,-3,-7,-3,-2,-1,-2
1461662002171200,-1,-2,-2,-5,-3,-2,-2,0
1461662002171200,-1,-2,-1,-3,-3,-1,0,-3
1461662002187225,0,-2,-2,-3,1,2,0,-1
1461662002187225,0,1,1,0,-2,0,0,1
1461662002189189,0,0,-3,-5,-3,-1,-2,-2
1461662002189189,-1,-2,-1,1,-1,-2,-1,-2
1461662002201196,-1,0,0,1,1,1,-1,-1
1461662002201196,-1,1,0,-2,-1,-2,-1,-1
1461662002210222,0,2,-1,1,0,0,0,-2
1461662002210222,-4,-2,-2,-2,0,-1,-2,-2
1461662002224226,-1,-2,-3,-2,-2,-2,-1,-2
1461662002224226,-1,0,1,-1,0,-1,-1,1
1461662002230256,0,-1,-2,-6,-1,0,-1,-2
1461662002230256,-2,-3,0,3,-1,-2,-1,-3
1461662002247268,-2,-3,0,-4,1,0,-1,-1
1461662002247268,3,3,1,11,3,1,-1,3
1461662002248229,-1,-1,-2,6,8,-1,-2,-1
1461662002248229,-4,-1,-2,-5,-2,0,-2,-1
1461662002260239,-2,2,0,-2,-2,-1,0,-1
1461662002260239,0,0,-1,-4,-2,-1,-2,0
1461662002270245,-3,-1,-2,-3,-4,-3,0,-1
1461662002270245,-2,0,-1,-3,-1,-1,-3,-1
1461662002283295,0,-1,-2,-2,-2,-1,0,-1
1461662002283295,-1,-1,0,-3,-2,-2,0,1
1461662002292260,0,-2,2,2,-2,-1,0,-1
1461662002292260,-1,0,-1,0,-1,-2,-1,-1
1461662002307286,-2,-1,-1,-1,-2,0,-1,1
1461662002307286,-2,-2,-4,-3,0,-1,-1,-1
1461662002308303,-2,-2,0,-2,-2,0,-1,-1
1461662002308303,0,-3,-5,-5,-1,-1,-2,-1
1461662002321283,0,-2,0,2,1,-1,0,-1
1461662002321283,0,-1,-3,1,2,0,0,-2
1461662002330288,-1,-1,-1,-1,-1,-1,-2,-1
1461662002330288,-2,-2,-2,-4,-2,-1,-1,-1
1461662002343297,0,-1,-1,0,-2,-1,-1,0
1461662002343297,-3,-3,0,-2,-2,0,-1,-1
1461662002352306,-1,-1,-2,-3,-2,-3,-3,0
1461662002352306,0,-1,-1,0,0,-3,-2,-1
1461662002367314,-1,-2,-2,-3,-2,-1,0,0
1461662002367314,0,-2,2,8,2,0,-1,0
1461662002368316,-2,-3,-3,-2,-2,0,-1,-1
1461662002368316,0,-1,0,2,1,1,0,-2
1461662002389342,-2,-1,-1,0,1,-2,0,-1
1461662002389342,-2,0,-2,-5,-5,-1,-1,0
1461662002391343,-1,-1,-1,-1,-3,0,1,-1
1461662002391343,-1,-1,-1,-3,0,-1,-1,-2
1461662002403352,-1,-2,-2,-4,-3,-1,-1,-2
1461662002403352,1,-1,0,5,4,1,-1,-1
1461662002412345,-3,0,0,-1,0,-2,-1,-1
1461662002412345,-1,-3,-2,0,0,-1,-2,-1
1461662002427368,-1,2,-1,-2,0,1,-1,-1
1461662002427368,0,0,-1,-7,-4,-2,0,0
1461662002428369,-1,-2,-2,-2,-1,-2,0,-1
1461662002428369,-1,-1,0,1,-1,-2,-2,-3
1461662002440378,2,-1,-1,-4,-4,-3,-2,0
1461662002440378,0,-2,0,-2,0,0,0,0
1461662002450374,-1,-1,-2,0,0,-1,-1,-2
1461662002450374,-1,-3,-2,0,-4,-2,-1,-1
1461662002463394,-1,0,-1,3,1,-1,-2,0
1461662002463394,-1,-1,-2,-1,-3,-1,-1,-2
1461662002472387,0,-1,0,-3,-1,-1,-1,0
1461662002472387,-2,-1,-1,0,-1,0,-1,-3
1461662002487438,0,-1,-1,1,-1,-1,-1,-1
1461662002487438,-1,1,-2,-5,-2,-2,0,0
1461662002488399,-3,-2,0,0,-1,0,-1,-2
1461662002488399,-2,-2,-2,2,1,-3,-1,-1
1461662002500414,0,-1,0,0,-1,-2,0,0
1461662002500414,0,-1,0,0,-2,0,0,1
1461662002509440,-1,-1,-2,-2,-1,-1,-2,1
1461662002509440,0,1,1,-1,-4,-3,0,-1
1461662002523424,-3,-2,0,2,1,0,-1,-1
1461662002523424,2,0,-1,-3,-2,0,-2,0
1461662002539436,0,-3,-2,-1,-3,-1,-1,-2
1461662002539436,1,0,-3,-5,-2,-2,-4,-3
1461662002547441,1,2,2,5,3,2,2,0
1461662002547441,1,0,-2,1,0,-1,0,0
1461662002548442,0,-1,-2,-3,-1,-1,-2,0
1461662002548442,-3,-2,-1,4,3,1,1,0
1461662002560451,0,-3,0,-5,-3,-2,-2,0
1461662002560451,0,-3,-1,1,0,-1,0,-1
1461662002577462,1,-1,0,-2,-3,-1,-1,-1
1461662002577462,-1,-2,-1,-7,-5,-3,-1,-2
1461662002583468,-2,-1,0,-2,-3,-2,-1,-1
1461662002583468,-1,1,1,0,1,2,0,-1
1461662002592472,0,-1,-1,2,0,-3,-1,-2
1461662002592472,-2,1,-3,-1,0,0,-2,-2
1461662002607543,0,0,-4,0,-1,-1,-1,0
1461662002607543,-1,-1,0,-3,-2,-2,0,-2
1461662002608485,-2,-1,-1,-4,-3,0,-1,-2
1461662002608485,-1,-1,-1,0,0,-1,0,-1
1461662002620494,0,-2,-1,-1,-1,-1,0,1
1461662002620494,-3,-2,-2,-1,-3,-2,0,0
1461662002629500,-2,-1,0,0,1,0,-2,-1
1461662002629500,-2,-1,0,0,1,2,-1,-2
1461662002643509,1,2,1,0,-2,-1,-1,-2
1461662002643509,1,-2,-3,-5,-2,-1,-1,-1
1461662002658520,-1,-2,1,7,4,1,-1,0
1461662002658520,-2,-2,-3,-4,-2,0,-2,-2
1461662002667530,-1,-1,1,2,1,-1,0,0
1461662002667530,1,-1,-1,-3,-1,-2,0,-1
1461662002668529,-1,1,-1,-1,0,-1,-2,-1
1461662002668529,-3,-2,-4,-9,-7,-2,-2,-2
1461662002690602,0,1,2,6,5,0,2,1
1461662002690602,-1,0,0,1,0,-1,-2,0
1461662002691558,-4,-3,-1,1,2,-1,-1,-2
1461662002691558,-1,-3,-1,-2,-2,-1,-1,0
1461662002703581,-1,-1,-4,-6,-3,0,-1,-1
1461662002703581,-1,-1,1,0,0,0,-1,0
1461662002712559,-1,-3,-3,-6,-2,-1,0,-1
1461662002712559,-2,1,1,3,-1,-3,-1,-1
1461662002726597,-2,-2,-3,-1,-2,0,-2,-2
1461662002726597,-1,0,-2,2,0,1,0,0
1461662002733590,-2,0,-2,-3,-4,-1,-2,-1
1461662002733590,-2,-1,-1,1,1,-1,-1,-2
1461662002740595,-1,-1,1,-1,-1,-2,-2,-3
1461662002740595,0,-1,0,1,0,-2,-1,0
1461662002749584,-1,-3,-3,-2,-2,-1,-1,-2
1461662002749584,0,-1,1,1,2,-1,-1,-1
1461662002763595,0,0,0,-3,0,1,0,0
1461662002763595,-1,0,0,4,-1,1,0,1
1461662002772608,0,-2,-2,-3,-3,-3,0,0
1461662002772608,-2,-2,1,1,-1,0,-2,-2
1461662002786669,-2,-3,-4,-9,-5,-4,-2,-1
1461662002786669,-1,-2,-2,-2,-1,-1,1,0
1461662002793683,-1,0,0,10,4,1,-2,-1
1461662002793683,-2,-2,-1,1,0,-1,-1,-1
1461662002800650,1,0,-2,-2,-2,-2,-2,1
1461662002800650,-2,-2,-2,-4,-4,-2,-2,-1
1461662002809632,-2,-1,-2,-7,-3,-2,-1,-2
1461662002809632,0,0,-1,-4,-1,-3,-2,-1
1461662002823638,-1,-1,0,0,0,-1,0,0
1461662002823638,0,-2,0,-4,0,-1,-2,0
1461662002832643,-1,-1,-1,1,-1,-1,-2,-1
1461662002832643,-1,-2,-2,1,-1,-1,-2,-3
1461662002846653,0,0,-1,1,1,0,-1,0
1461662002846653,-1,1,-1,2,-1,-1,-1,-1
1461662002853657,-2,-1,-2,-4,-2,0,-2,1
1461662002853657,1,-1,-3,-3,-3,-3,-2,0
1461662002860662,-1,-2,0,-1,0,0,0,0
1461662002860662,-1,-1,1,-3,0,1,-1,-1
1461662002869669,-1,-1,-1,4,0,-2,0,-1
1461662002869669,-3,-2,-2,-3,-2,-3,-2,-1
1461662002883678,1,0,-1,3,0,0,1,1
1461662002883678,-1,-2,-2,-2,-1,-1,-1,0
1461662002892687,-4,-2,-1,-5,-2,-1,-1,-2
1461662002892687,-2,-2,-4,-2,2,1,1,-2
1461662002906723,0,0,1,-3,-2,-3,-2,-2
1461662002906723,0,-1,0,5,1,-2,-1,-2
1461662002913731,-1,-3,-3,-2,-2,0,-3,-3
1461662002913731,-3,-1,-1,-1,-2,-2,-2,-1
1461662002929769,0,-1,-2,-3,-2,-1,0,-1
1461662002929769,-1,-2,-1,0,1,0,-1,0
1461662002931715,-1,-3,-1,-3,-2,-2,-1,-1
1461662002931715,0,-2,0,-2,-4,-1,-2,-3
1461662002943759,-2,-1,0,0,-1,0,0,-1
1461662002943759,0,0,-1,-2,-3,-1,0,-2
1461662002952733,-2,0,-2,-1,-1,-1,0,-1
1461662002952733,-1,1,-2,-1,0,-1,-2,-1
1461662002966767,0,-1,-2,2,-1,-1,0,0
1461662002966767,-1,0,-1,2,1,0,-1,0
1461662002980765,-2,-1,-2,-4,-2,-1,-2,-2
1461662002980765,-1,0,-1,0,-2,1,-1,0
1461662002996823,-1,1,0,3,2,0,-2,0
1461662002996823,-2,1,0,-4,-1,1,0,1
1461662002998764,0,-2,0,-2,-3,-2,-2,-1
1461662002998764,0,0,1,1,-1,-1,0,0
1461662003003782,0,-2,0,-1,0,-2,0,0
1461662003003782,1,-1,-1,-1,-1,-1,-1,0
1461662003011788,0,0,-2,-6,-4,-2,-2,-2
1461662003011788,-2,-3,-2,5,3,0,2,0
1461662003026781,0,-2,1,2,2,1,-1,1
1461662003026781,0,-1,-4,-4,1,0,-1,-1
1461662003033787,-1,0,1,3,1,1,-1,0
1461662003033787,-3,-2,-2,-6,-5,-3,-1,-4
1461662003049799,1,0,-4,-6,-3,0,-1,-2
1461662003049799,-2,-4,3,1,-2,-1,-2,-2
1461662003051806,-3,-3,-4,-6,-3,-1,-2,-3
1461662003051806,-3,0,1,1,0,-2,-2,-2
1461662003063809,0,0,0,0,-1,-1,0,0
1461662003063809,0,2,0,-3,-2,-2,0,0
1461662003071816,-1,-1,-2,-3,-1,-1,-1,-1
1461662003071816,-1,-2,1,-2,-2,0,-1,-2
1461662003086888,-1,-2,-1,-2,-1,-3,-1,-1
1461662003086888,1,-1,-2,-3,-4,-2,-1,-1
1461662003100840,-2,-1,0,4,2,-1,0,-3
1461662003100840,-2,0,-2,1,-2,-1,-2,0
1461662003109868,0,-1,0,-2,-1,-2,0,-1
1461662003109868,0,-2,0,3,1,-1,0,0
1461662003110847,-2,-2,-4,-3,-1,-2,-2,1
1461662003110847,1,1,-1,-2,-1,-2,-1,-2
1461662003122864,0,-2,-1,-3,-5,-1,-1,-1
1461662003122864,-1,-1,1,-2,-1,-1,0,1
1461662003131855,-1,-1,1,0,1,0,0,-2
1461662003131855,0,-4,-5,1,-1,0,0,1
1461662003146865,1,2,1,6,4,0,0,0
1461662003146865,-3,-2,0,2,-1,0,-1,-2
1461662003153869,-1,1,-1,-12,-5,-2,-1,-2
1461662003153869,-3,-3,3,8,3,1,-1,-3
1461662003169920,0,-3,-2,-2,-3,-1,-2,1
1461662003169920,1,-1,-3,-1,-1,-1,1,0
1461662003170921,-1,-1,-2,-2,-1,-1,-1,-1
1461662003170921,-1,-2,-3,-5,-3,-1,-2,0
1461662003182920,-2,2,1,2,1,-1,-2,-1
1461662003182920,-3,-5,-2,-5,-2,-2,-1,-1
1461662003191928,-1,4,-2,1,-3,-2,-1,-1
1461662003191928,-1,-10,-3,-5,-2,-2,-1,0
1461662003214922,1,-2,0,0,-1,-1,0,0
1461662003214922,0,-2,-1,-1,-1,-1,-4,0
1461662003215922,-5,-4,0,0,-2,-3,-3,-4
1461662003215922,-1,2,-1,2,4,1,0,0
1461662003229953,1,-1,-1,0,0,-1,0,3
1461662003229953,-1,0,-3,1,-2,0,0,-1
1461662003230933,-4,-1,-1,1,-2,0,-2,-1
1461662003230933,-2,4,1,-4,-2,-2,-2,-1
1461662003242949,-2,0,-2,2,-2,0,-2,-2
1461662003242949,3,3,4,8,1,2,1,1
1461662003251955,-2,-1,-1,4,3,0,-1,-1
1461662003251955,-1,-3,-2,-8,-6,-1,-2,-2
1461662003266952,0,0,0,7,3,0,0,0
1461662003266952,0,-1,-1,-3,-4,-2,-2,-1
1461662003272994,-1,-6,-4,1,0,0,-1,-1
1461662003272994,1,1,1,-5,-3,-2,-1,0
1461662003289005,-6,-5,-4,-7,-2,-1,-2,-3
1461662003289005,-2,-3,-3,1,0,-1,-1,-2
1461662003296971,-1,-4,-1,-3,-3,-3,-3,-1
1461662003296971,0,0,-1,-5,-2,-1,0,-2
1461662003302975,1,0,0,2,-2,0,-1,-2
1461662003302975,0,0,1,1,1,-1,-1,2
1461662003311985,0,1,-7,-14,-6,-1,0,1
1461662003311985,-2,2,1,13,7,-1,-2,-3
1461662003326995,0,-4,-2,-1,0,-1,-1,-2
1461662003326995,-2,-2,-4,-4,-3,-2,-2,-3
1461662003341032,-2,-3,-3,-17,-7,0,-2,-4
1461662003341032,-1,0,5,22,10,2,1,3
1461662003350020,2,0,-2,-12,-4,-3,-1,-2
1461662003350020,-4,-1,5,-1,-8,-6,-5,-1
1461662003351010,6,11,9,29,22,6,6,2
1461662003351010,-4,-16,-3,14,16,7,9,0
1461662003363048,-10,-4,-10,-18,-4,-3,-2,3
1461662003363048,2,3,-10,-22,-9,-1,15,1
1461662003372041,-10,-8,5,0,-15,-3,-22,-7
1461662003372041,7,1,-3,-2,0,-2,-1,1
1461662003386035,13,8,8,13,3,-4,-10,1
1461662003386035,9,3,-5,-19,-4,-2,3,3
1461662003401046,-5,-13,-11,6,5,5,15,-1
1461662003401046,-6,13,17,-5,-9,1,1,0
1461662003410063,-13,-6,-24,-12,7,-3,-22,-9
1461662003410063,-4,-18,12,45,13,-3,-4,-3
1461662003411051,13,18,-6,16,4,7,20,2
1461662003411051,-13,-3,-3,-63,-33,-8,-8,-5
1461662003423061,4,0,8,62,35,11,6,5
1461662003423061,-1,9,-2,-16,-10,-3,-3,0
1461662003432066,-14,-41,-1,-10,3,4,-8,-6
1461662003432066,19,10,-5,9,4,-2,4,11
1461662003446089,-11,16,8,-31,-19,0,12,-1
1461662003446089,-8,-26,-12,31,17,15,20,-2
1461662003455082,-3,7,-4,-20,-15,-13,-47,-19
1461662003455082,5,-21,-17,-17,-21,-35,-51,-11
1461662003470093,13,-1,4,-17,-20,-18,-21,2
1461662003470093,-8,0,2,-8,8,6,25,5
1461662003471100,-15,2,-8,12,-1,13,53,7
1461662003471100,-7,-9,9,12,11,11,-20,-12
1461662003483124,0,12,9,-7,-11,-5,-2,-2
1461662003483124,9,10,-2,-7,-4,-2,-5,4
1461662003492131,4,23,6,-45,-19,-6,-7,-5
1461662003492131,-8,-49,-31,63,33,15,23,2
1461662003506139,11,-8,7,18,1,-4,4,6
1461662003506139,13,19,2,-1,-4,-4,-28,-1
1461662003515133,15,20,9,-34,-6,-7,12,6
1461662003515133,-10,10,-6,-10,-18,-6,10,-6
1461662003537167,-1,-69,-12,4,0,-2,-13,-9
1461662003537167,-9,18,11,35,14,8,19,3
1461662003539143,0,-9,4,13,3,6,3,6
1461662003539143,-6,-23,-2,-67,-28,-7,-14,-4
1461662003543157,-6,-3,-24,-26,-11,-17,5,-5
1461662003543157,7,-6,1,-1,3,4,-26,-1
1461662003552151,-3,-11,0,33,15,4,9,1
1461662003552151,6,40,-11,-63,-19,-10,-5,-3
1461662003566186,-10,17,24,42,16,2,2,-3
1461662003566186,-2,-4,9,-4,-7,0,13,-3
1461662003575207,1,22,8,41,15,8,14,5
1461662003575207,17,-33,5,66,21,0,-25,0
1461662003589217,-6,47,2,-73,-28,0,32,-1
1461662003589217,-12,-30,-45,-34,-3,15,-10,-7
1461662003591178,-19,-25,29,91,43,18,10,2
1461662003591178,-3,-12,17,-4,-17,-26,-26,2
1461662003603199,35,-18,9,20,7,-12,-27,9
1461662003603199,-7,-18,-18,15,4,-9,11,1
1461662003612209,1,-8,-21,-44,-20,0,11,-2
1461662003612209,-12,-18,10,-15,1,25,50,8
1461662003626263,2,-16,-6,18,3,9,-5,1
1461662003626263,5,8,4,-26,-17,-14,10,1
1461662003633267,-15,-46,-15,-38,-24,-30,-116,-25
1461662003633267,-6,32,5,-11,2,-15,3,-16
1461662003649234,-3,15,-6,-29,-12,11,33,5
1461662003649234,14,11,-15,78,33,16,-5,-2
1461662003656224,-6,1,32,-47,-25,-28,-4,5
1461662003656224,1,-37,19,51,30,15,16,17
1461662003663294,21,-56,-2,-39,-14,18,46,13
1461662003663294,-17,-32,19,72,16,4,-17,-14
1461662003672244,-17,7,-36,-93,-34,-2,27,-8
1461662003672244,13,22,17,52,25,10,-1,8
1461662003686275,22,85,38,10,7,-25,-48,-1
1461662003686275,-10,68,-13,-75,-44,-18,-1,-18
1461662003693255,2,9,-46,52,38,42,15,-11
1461662003693255,23,52,-24,1,5,7,17,18
1461662003709279,-35,-56,-26,25,-1,-30,-31,-2
1461662003709279,11,28,35,-50,-22,-18,8,26
1461662003715267,1,5,-14,6,7,-1,21,-23
1461662003715267,24,18,12,-29,-26,6,-44,-5
1461662003732279,-17,-38,-11,80,53,11,-8,-9
1461662003732279,-15,-6,15,-57,-20,-9,5,-1
1461662003734297,8,58,30,-1,-4,21,32,19
1461662003734297,-14,50,13,41,5,-4,-17,-15
1461662003746305,0,49,-45,-35,-16,-24,-37,-20
1461662003746305,-9,-7,14,-40,-25,-17,3,-2
1461662003754306,-8,-1,-1,-32,18,19,65,40
1461662003754306,2,7,9,83,55,27,-9,-9
1461662003770323,13,43,12,-67,-15,13,19,11
1461662003770323,9,-15,-21,66,35,14,42,-3
1461662003776361,-16,-11,57,-6,-23,-27,-89,-9
1461662003776361,-5,-15,-37,-6,-11,-40,3,6
1461662003783341,-13,-45,1,4,-8,-10,-8,-5
1461662003783341,5,-17,-3,-16,2,15,15,-19
1461662003792328,13,24,-17,-59,-17,11,-20,-6
1461662003792328,-16,22,27,-1,-7,-12,-14,-3
1461662003806356,3,44,10,53,1,3,-4,-5
1461662003806356,-10,3,-16,-40,-24,-3,38,10
1461662003813363,-2,12,-29,-12,-6,-13,-21,-15
1461662003813363,1,24,3,6,7,-1,-3,-2
1461662003829372,-8,-68,-3,-61,-26,25,44,11
1461662003829372,17,-80,8,73,45,32,17,16
1461662003835378,-14,-47,1,30,15,-18,-69,-7
1461662003835378,18,-21,-10,-49,-26,-23,79,2
1461662003852379,-54,-36,-33,-30,-49,-25,-59,-27
1461662003852379,-3,-2,6,98,33,-31,-63,-1
1461662003853378,32,-20,3,15,0,0,7,23
1461662003853378,-7,-47,16,-58,-16,27,27,-7
1461662003865387,9,-32,-18,-1,-3,3,24,-1
1461662003865387,17,8,-20,-105,-39,-14,-24,13
1461662003874399,24,-17,7,118,44,-8,2,14
1461662003874399,-23,-25,-10,-55,-29,7,-7,-19
1461662003889403,-15,103,10,-47,12,31,35,-12
1461662003889403,8,99,26,22,5,5,-8,14
1461662003903429,26,127,1,5,-14,-31,8,10
1461662003903429,-51,127,-31,-9,3,12,24,-16
1461662003912435,25,113,14,61,28,33,47,10
1461662003912435,-14,127,-7,-128,-59,-23,-63,-23
1461662003913408,-10,81,-5,93,71,7,-36,-3
1461662003913408,33,108,37,-9,-8,-7,1,12
1461662003925444,41,104,-2,-45,-38,21,44,22
1461662003925444,-30,-10,-32,79,43,-19,-48,-20
1461662003934441,-14,-80,-3,18,-3,-28,-28,-5
1461662003934441,-50,-98,15,8,23,51,33,-9
1461662003949434,-7,-109,3,-6,-14,-23,-11,-24
1461662003949434,34,-88,-9,-34,-25,-18,13,42
1461662003955437,-16,-128,-32,-45,-23,-9,9,4
1461662003955437,21,-115,-10,14,11,-3,2,-4
1461662003972507,4,-124,51,-24,-11,14,10,-19
1461662003972507,55,-60,17,-6,17,30,12,4
1461662003973465,-7,97,-25,-6,1,-3,6,7
1461662003973465,-30,115,-28,-86,-35,-16,-13,-7
1461662003985516,-20,25,-17,37,11,-6,-7,-13
1461662003985516,-19,-69,9,-67,-53,-34,-48,-32
1461662003994465,-7,-78,41,83,82,51,50,26
1461662003994465,-14,-92,-3,-75,-17,31,71,4
1461662004008504,30,-77,-8,4,15,-18,-104,2
1461662004008504,-54,-56,3,48,14,-20,69,10
1461662004017489,74,-64,-12,-54,-41,37,-15,10
1461662004017489,82,-51,-17,19,-11,-80,-128,5
1461662004032507,-34,-42,-7,14,7,-71,-38,-17
1461662004032507,-59,-18,-22,-3,-9,2,-8,-27
1461662004033494,54,-25,0,-67,-32,18,54,-4
1461662004033494,4,-40,1,-2,-8,25,40,13
1461662004045516,-33,-3,33,97,45,29,21,1
1461662004045516,-30,-3,-51,-123,-39,-2,-19,-5
1461662004055507,-29,-18,-7,-58,-25,-19,6,-13
1461662004055507,55,-11,59,104,91,23,-10,-4
1461662004068517,56,1,3,-62,13,6,16,13
1461662004068517,4,5,-80,-9,-13,-3,1,-7
1461662004075580,-12,-11,4,31,3,-5,26,17
1461662004075580,92,-4,-1,-20,-20,-8,-32,14
1461662004092597,-105,4,11,12,6,18,32,9
1461662004092597,-25,-5,10,17,11,15,7,-28
1461662004093537,-41,-2,-26,-70,-41,-6,2,17
1461662004093537,-15,-4,-16,15,-6,-25,-50,-14
1461662004105572,76,-2,-9,27,5,-44,-36,26
1461662004105572,83,1,48,2,-7,-8,13,27
1461662004114579,-90,-2,-38,-67,-26,-16,-33,-47
1461662004114579,34,-2,23,70,37,33,72,29
1461662004129589,-9,-2,-12,-112,-34,27,7,-36
1461662004129589,-86,2,30,82,42,2,-16,31
1461662004135593,91,-1,17,-60,-35,-16,-6,-5
1461662004135593,-62,-6,-33,62,80,34,22,-5
1461662004152592,65,1,4,23,-35,-20,3,-22
1461662004152592,34,1,11,14,40,21,3,10
1461662004153578,-38,-3,-4,-92,-46,-16,-4,-10
1461662004153578,-59,-2,37,-19,-49,-21,-26,-12
1461662004165585,84,0,-28,7,5,-9,16,14
1461662004165585,-68,1,12,-13,-7,15,-20,24
1461662004180655,-78,-3,1,69,31,27,48,16
1461662004180655,-50,-1,-22,-69,-52,-25,-5,-20
1461662004190662,-73,0,2,17,13,-38,-90,-53
1461662004190662,82,-2,27,3,-7,-29,-49,4
1461662004195665,66,-1,-1,-27,-5,18,76,5
1461662004195665,-77,-1,-3,27,5,8,-17,2
1461662004212648,-34,-1,7,-1,-13,-11,9,-4
1461662004212648,94,0,-32,-63,-23,-9,-13,-13
1461662004213620,-126,-1,3,-48,2,5,-17,-5
1461662004213620,45,-1,16,69,22,22,40,-20
1461662004225629,5,-1,-16,-53,26,26,24,5
1461662004225629,62,0,-10,4,21,9,24,7
1461662004234636,38,-1,9,-24,-36,-19,-14,6
1461662004234636,-67,-2,26,42,14,5,-2,-30
1461662004256665,83,-1,-8,-69,-20,1,2,33
1461662004256665,-84,0,-7,21,19,28,58,-3
1461662004258650,-41,-1,7,2,5,-1,-14,4
1461662004258650,-18,-1,-36,-63,-23,-11,8,-6
1461662004271699,-128,0,-19,38,16,3,-46,-19
1461662004271699,19,-1,0,-27,-23,-21,25,7
1461662004273664,90,-1,15,53,21,-6,-36,12
1461662004273664,-32,-1,-20,-66,-40,-33,-10,-17
1461662004285709,115,-1,45,11,3,24,45,9
1461662004285709,-97,-1,-27,22,24,14,-6,4
1461662004294676,37,-1,-17,-4,-7,-10,-23,-16
1461662004294676,45,-1,4,30,11,5,7,4
1461662004308745,-11,-1,32,-118,-67,-16,-1,-11
1461662004308745,41,-1,-8,96,74,24,-5,-6
1461662004315705,116,2,7,17,0,-12,-11,1
1461662004315705,-57,-108,-21,-60,-10,-11,-1,4
1461662004331705,-85,-118,-13,7,-18,8,18,20
1461662004331705,69,-100,15,-73,-51,-16,-18,-14
1461662004333707,-93,-67,15,72,45,14,-43,-19
1461662004333707,35,112,-21,-33,-17,-3,3,18
1461662004345772,-16,119,-6,31,13,-21,-38,19
1461662004345772,-55,73,30,6,1,-9,-4,7
1461662004354719,-62,32,-2,6,1,3,21,-19
1461662004354719,16,67,3,-60,-21,5,-39,-31
1461662004368793,2,70,-11,86,52,9,15,7
1461662004368793,6,9,-12,-53,-38,-9,-2,-3
1461662004375845,-11,-24,0,51,21,1,5,-2
1461662004375845,25,7,-17,-106,-42,-7,9,11
1461662004407821,0,98,26,80,57,23,21,-13
1461662004407821,-1,91,6,42,19,4,-7,-2
1461662004409810,20,54,7,-29,-28,-11,-1,-2
1461662004409810,27,7,-11,1,26,21,15,10
1461662004409810,65,-93,-7,-48,-27,-2,26,33
1461662004409810,-102,-93,-9,-11,-6,14,-13,-11
1461662004414814,38,-103,-14,6,5,-15,1,19
1461662004414814,60,-108,6,30,-2,-11,-19,-14
1461662004428835,50,-36,-11,-21,-13,-17,-13,17
1461662004428835,-42,48,18,13,-8,-12,-22,1
1461662004435840,-14,127,-9,-30,-17,-4,18,5
1461662004435840,51,127,-10,-5,3,1,-12,-4
1461662004451840,30,114,-10,-26,-20,5,10,-17
1461662004451840,43,115,-5,-8,12,11,15,15
1461662004453842,-4,127,30,42,15,-5,-17,-12
1461662004453842,-21,89,-3,25,15,-6,1,-6
1461662004465850,-30,53,-29,-29,-13,4,3,-11
1461662004465850,27,75,1,11,9,-2,-2,-5
1461662004480900,-7,50,9,2,8,1,-2,-10
1461662004480900,-1,18,6,1,-13,-11,-2,9
1461662004488905,-58,27,-24,-4,2,9,5,-11
1461662004488905,47,26,-5,-26,-24,-25,4,8
1461662004495912,6,9,-7,-7,0,-12,-24,12
1461662004495912,-25,7,-5,21,15,16,-8,-9
1461662004511923,5,19,-8,-7,0,26,3,-1
1461662004511923,15,5,7,1,-9,-17,2,15
1461662004513900,4,-3,0,-7,-9,-9,41,21
1461662004513900,7,12,-1,-12,-3,32,-15,-13
1461662004525951,-1,4,9,17,8,-17,-16,-14
1461662004525951,8,-6,-13,-40,-32,-7,-7,-16
1461662004534898,-11,4,16,28,20,2,12,8
1461662004534898,-5,5,10,9,0,-18,5,5
1461662004548922,-20,-3,6,39,20,12,14,-4
1461662004548922,1,-1,4,17,7,3,-5,-5
1461662004555925,-1,7,-17,-31,-13,-2,-18,-10
1461662004555925,-18,0,-24,-3,-10,-9,-2,-4
1461662004571944,8,-4,18,-3,7,1,-10,-7
1461662004571944,15,4,12,2,-4,-6,4,2
1461662004573957,-48,1,0,-1,-1,13,-7,-14
1461662004573957,10,-3,8,-1,-10,-21,-4,5
1461662004585936,-10,1,-15,-14,-11,-10,-14,1
1461662004585936,-16,2,3,9,8,-6,29,5
1461662004594941,9,-1,-15,-3,-2,40,13,-17
1461662004594941,-6,-1,3,-5,4,26,10,9
1461662004609058,-1,35,2,0,-7,-42,-5,6
1461662004609058,1,62,-1,2,6,34,-2,-13
1461662004616047,6,58,-4,-3,-8,-36,-23,-7
1461662004616047,-10,64,-20,-58,-26,-19,1,6
1461662004631114,-2,48,12,31,18,10,5,2
1461662004631114,-6,33,15,32,23,10,-3,-8
1461662004638119,7,26,0,-7,-5,-10,-6,-11
1461662004638119,3,4,-11,30,29,1,-6,11
1461662004646125,4,4,23,-15,-7,8,5,14
1461662004646125,-6,-5,-11,-22,-12,-3,-2,-14
1461662004655082,-4,-17,4,-8,-8,3,-9,-20
1461662004655082,1,-3,-4,9,-1,-9,-1,10
1461662004669091,0,3,-21,-10,-1,6,2,10
1461662004669091,-6,-1,9,7,2,-3,4,1
1461662004676094,8,-14,-5,-6,-2,-16,-34,-36
1461662004676094,-6,-23,12,3,-7,4,11,13
1461662004691101,-1,-14,1,6,6,10,16,25
1461662004691101,-13,-19,-6,-11,1,17,8,-16
1461662004698106,3,-27,-10,-10,-6,-5,6,-1
1461662004698106,8,-10,9,6,3,-16,-3,8
1461662004706112,1,-18,-28,-1,2,12,10,9
1461662004706112,0,-13,16,-10,-7,-9,-9,-7
1461662004715130,3,-16,-32,-4,3,-9,-6,-3
1461662004715130,4,8,34,29,1,-15,1,22
1461662004729182,1,3,30,-17,-6,1,5,3
1461662004729182,-2,-17,-37,-2,4,-3,-23,-27
1461662004736189,-3,-6,6,-30,-9,-3,0,-9
1461662004736189,4,1,26,59,21,3,-4,3
1461662004751167,-5,-8,17,11,7,1,3,2
1461662004751167,-10,-22,-32,-8,-8,-5,-1,-7
1461662004758171,1,-2,-3,-4,-4,7,-2,-1
1461662004758171,3,-4,-20,-20,-12,-13,-1,9
1461662004774173,1,-5,4,-1,-1,-5,-5,2
1461662004774173,0,-1,19,1,1,13,1,-1
1461662004776175,-2,-3,-10,5,-1,-1,9,11
1461662004776175,-5,-11,6,-13,-4,8,-7,-24
1461662004788184,-1,-10,-4,3,2,-7,-9,0
1461662004788184,1,0,4,-4,-1,-7,-3,-3
1461662004797189,2,0,10,9,1,1,6,2
1461662004797189,0,-10,-45,-10,-7,-17,-5,6
1461662004811222,-4,3,7,-3,-1,18,-2,-3
1461662004811222,-4,-2,26,-2,-2,-2,1,0
1461662004818227,4,10,2,4,-1,-2,-4,-2
1461662004818227,2,-3,-34,-7,1,-3,0,4
1461662004834239,-5,-13,-1,1,-2,-2,1,-4
1461662004834239,-3,-3,-10,-8,-5,2,-1,1
1461662004836200,2,3,15,10,3,-12,-8,-7
1461662004836200,-2,-6,12,-13,-4,8,5,0
1461662004849224,4,0,-16,-7,0,-7,-7,8
1461662004849224,-2,2,1,7,1,5,1,-2
1461662004856236,0,-18,-36,5,-1,-7,-3,-4
1461662004856236,1,3,21,-8,-3,7,-2,2
1461662004871254,-2,-9,-4,-3,-3,2,5,0
1461662004871254,-2,-2,23,8,1,2,-2,-7
1461662004878260,3,8,27,7,4,-3,0,5
1461662004878260,-13,-40,-58,-19,-8,12,9,2
1461662004894259,0,4,11,2,-2,0,1,0
1461662004894259,-1,-8,-6,-2,-3,-8,-5,0
1461662004896243,1,6,13,0,-5,0,4,8
1461662004896243,4,8,25,10,6,-4,-8,-16
1461662004909270,-2,-8,-45,-14,-1,-2,-4,-1
1461662004909270,-2,-4,-16,-3,-1,-7,-2,-5
1461662004915273,-5,6,33,5,1,4,3,2
1461662004915273,-8,-9,0,-8,-5,-1,6,18
1461662004931327,-1,-17,-21,1,0,-4,-10,-15
1461662004931327,5,4,12,3,-1,-11,-4,3
1461662004940304,-2,-5,3,-5,-1,4,-4,-13
1461662004940304,2,-9,-34,1,0,-9,0,14
1461662004962309,-2,1,18,3,-1,4,-10,0
1461662004962309,0,-3,2,0,0,7,29,5
1461662004963310,-5,-13,-20,-14,-6,2,-3,-5
1461662004963310,0,-2,8,-2,-2,1,3,-5
1461662004969306,-1,-5,-5,-1,-2,-7,-2,4
1461662004969306,-1,1,-8,1,0,-8,-14,-6
1461662004976332,-1,-7,-27,-9,-1,6,7,3
1461662004976332,-1,10,43,7,2,-4,-16,-5
1461662004991338,4,8,7,-2,-3,-2,2,0
1461662004991338,-4,-4,19,-1,0,3,7,-4
1461662004998325,-1,-5,-38,3,2,1,3,-4
1461662004998325,-2,-4,21,0,-2,-4,-3,1
1461662005014335,-10,-13,9,5,0,-2,-4,2
1461662005014335,0,5,-21,-4,-4,8,-2,0
1461662005016337,-5,-14,-26,-10,-4,-4,8,8
1461662005016337,5,10,-26,5,-1,-11,-46,-22
1461662005029346,6,-2,13,2,0,3,29,6
1461662005029346,-13,-16,-11,-4,-1,11,-5,-9
1461662005036348,1,2,14,0,-2,-3,4,-3
1461662005036348,-1,-1,-3,0,-3,-15,-28,-8
1461662005051355,4,16,14,2,-2,-1,-16,8
1461662005051355,9,12,-1,-7,-2,6,37,8
1461662005058359,-9,-15,10,17,9,3,-7,-1
1461662005058359,-2,-6,4,-5,0,5,5,6
1461662005074386,0,3,-15,-15,-1,0,27,-4
1461662005074386,4,11,22,-2,-1,-3,-8,3
1461662005076371,-6,-14,-22,-1,-2,-1,-1,-6
1461662005076371,3,8,-5,0,0,-1,2,0
1461662005089383,-3,-1,2,4,-2,-5,-13,-3
1461662005089383,2,3,23,-4,-2,-6,-14,-3
1461662005095387,1,7,-12,4,-2,-12,-1,-6
1461662005095387,-2,-15,-5,-5,-1,3,-1,7
1461662005111420,0,0,-13,-6,-1,6,1,-12
1461662005111420,-5,-5,14,3,1,7,8,2
1461662005118425,-1,-5,18,-6,-5,-2,-12,-7
1461662005118425,2,9,-2,-4,1,0,11,12
1461662005134423,2,3,-1,1,-1,1,26,4
1461662005134423,4,-9,-15,5,1,-7,-30,-7
1461662005136431,4,12,29,8,6,2,2,4
1461662005136431,-1,-14,-33,-12,-6,1,13,-3
1461662005148433,-1,8,22,1,-4,-5,-18,-4
1461662005148433,1,13,-7,0,1,-7,-3,-4
1461662005157430,2,14,18,-20,-19,-7,-22,2
1461662005157430,7,9,7,18,16,10,37,4
1461662005171479,-14,-40,-7,7,7,1,-12,-2
1461662005171479,2,1,9,8,7,0,6,5
1461662005178482,1,12,9,-8,-7,-6,-32,-8
1461662005178482,-2,0,-27,-7,-11,-5,4,1
1461662005194463,5,-7,2,0,0,-2,37,5
1461662005194463,-8,24,-5,-2,-2,-3,-49,-14
1461662005200458,6,1,-7,-3,0,6,15,5
1461662005200458,-13,-24,5,-2,-3,6,22,5
1461662005208523,15,25,4,4,3,1,0,8
1461662005208523,-10,-19,-22,-6,-6,-6,7,-7
1461662005217470,-2,-2,0,2,3,1,-27,-5
1461662005217470,1,5,8,-2,-4,-3,13,6
1461662005231481,-3,-16,-20,-3,-2,1,-9,-28
1461662005231481,4,9,18,4,1,-4,-34,0
1461662005245491,-1,-6,16,13,1,2,35,-5
1461662005245491,2,1,2,-17,0,3,-10,-10
1461662005254496,-1,16,14,4,2,-1,1,-15
1461662005254496,-4,-25,-50,-9,-6,-8,-6,-35
1461662005256498,-3,-5,-1,7,4,3,-7,-25
1461662005256498,5,20,7,-2,-3,0,12,-12
1461662005268507,-4,-2,-14,-7,-3,-2,-7,5
1461662005268507,-5,-19,-2,-3,1,-2,-3,12
1461662005284517,-7,11,-1,-11,-6,-2,-27,15
1461662005284517,0,-8,-10,10,-1,-1,40,17
1461662005291524,-10,-14,16,5,1,4,-5,16
1461662005291524,-5,-10,0,-4,1,4,16,16
1461662005298527,3,4,6,1,0,0,7,9
1461662005298527,5,10,12,-1,-1,-5,-46,3
1461662005322557,-4,-11,-36,-4,-3,-5,8,10
1461662005322557,-2,0,19,6,-3,-1,3,8
1461662005323546,-3,-4,9,-2,-4,-5,3,1
1461662005323546,-3,2,11,2,-3,-4,-25,-5
1461662005328608,1,6,-6,1,-1,-16,31,9
1461662005328608,-13,-25,-60,-21,-10,8,-59,-19
1461662005337679,5,3,-16,-1,5,7,39,23
1461662005337679,-1,-3,3,4,3,7,59,7
1461662005351685,5,14,4,3,-1,0,-3,0
1461662005351685,-3,2,33,2,-4,-8,15,2
1461662005359691,-6,-16,9,0,-3,-4,-21,-11
1461662005359691,-1,-6,-2,0,-1,-4,-18,-5
1461662005374690,-1,1,0,-17,-10,-5,-19,-2
1461662005374690,3,5,-3,16,15,1,11,-1
1461662005376691,-1,-5,1,8,3,2,2,-3
1461662005376691,0,1,-8,-5,-5,-7,-17,-3
1461662005388700,7,14,-4,1,-3,-1,-5,-4
1461662005388700,2,-17,-18,-7,-6,2,-4,0
1461662005397706,-9,-1,-17,0,-2,-5,24,-6
1461662005397706,-10,-2,-13,-10,-5,-10,-33,-13
1461662005411710,2,12,19,1,1,5,-45,0
1461662005411710,-1,-25,1,-2,0,11,80,11
1461662005418715,5,18,-24,0,3,0,29,3
1461662005418715,2,5,44,3,-1,-1,-13,2
1461662005434732,1,7,-3,5,2,4,-13,-4
1461662005434732,-1,7,12,-6,-6,-9,-14,-5
1461662005436733,2,-8,-15,-3,1,0,-14,-3
1461662005436733,-2,2,-10,7,2,0,8,-4
1461662005448726,1,-4,1,-11,2,2,-13,-2
1461662005448726,-1,8,8,-3,-3,-3,10,0
1461662005457748,-2,-16,-36,1,2,0,-4,-2
1461662005457748,8,32,19,6,0,0,2,1
1461662005471780,-16,-43,12,1,-2,-3,-8,-3
1461662005471780,-3,6,-9,10,-1,-4,-18,-9
1461662005478761,14,17,-20,-15,-1,4,15,13
1461662005478761,-9,8,27,3,-1,0,-14,-3
1461662005494798,12,25,4,6,3,9,34,6
1461662005494798,-11,-17,-6,-5,-2,0,0,-3
1461662005496760,0,-8,17,2,-1,-3,-16,-5
1461662005496760,2,-11,-30,-1,0,0,6,4
1461662005508785,0,-3,-3,-4,-6,-8,-9,-6
1461662005508785,1,9,11,-3,-2,-3,-36,-5
1461662005517775,-5,-5,-16,2,2,2,29,2
1461662005517775,4,-8,3,-8,-4,2,-1,2
1461662005531787,-11,-15,-28,5,1,-3,9,-8
1461662005531787,9,24,17,-11,-5,-5,-11,-2
1461662005538791,-12,-27,2,-6,-5,-2,-22,-6
1461662005538791,0,-7,0,9,11,7,37,4
1461662005554812,1,13,24,3,2,-4,-19,-1
1461662005554812,-3,-14,-48,-6,1,5,33,4
1461662005562835,7,17,35,2,-5,-4,-19,-5
1461662005562835,-5,14,-3,-2,-4,-1,12,1
1461662005568825,1,5,-4,0,-3,0,13,2
1461662005568825,-5,-12,-1,5,2,-3,-24,-4
1461662005577815,-3,2,0,-7,-3,-2,15,-3
1461662005577815,1,-6,1,1,-1,0,-13,-1
1461662005591855,5,7,-2,2,4,5,-2,2
1461662005591855,-9,-9,-6,-8,-7,-5,5,-6
1461662005598832,-2,-4,-3,1,0,0,-25,-4
1461662005598832,-1,-8,2,-2,-2,-1,8,1
1461662005613856,2,2,4,4,0,0,-2,1
1461662005613856,-5,-3,-2,-28,-18,-6,3,0
1461662005620861,0,4,15,29,23,3,-2,1
1461662005620861,3,-4,-18,9,5,-2,-7,-2
1461662005628852,-7,-19,6,-1,-2,-1,1,-1
1461662005628852,4,18,6,-5,-3,-1,5,0
1461662005636873,-2,2,10,-4,-5,-5,-5,-2
1461662005636873,1,-8,-11,5,3,3,-6,1
1461662005659932,4,14,3,-5,-3,1,6,1
1461662005659932,-10,-41,-12,-1,1,-1,-1,-3
1461662005660907,2,14,19,-9,-8,-1,-1,-1
1461662005660907,0,-5,0,-1,0,-5,-19,-7
1461662005673942,-4,-1,3,-3,-5,-2,1,-1
1461662005673942,3,2,-44,-3,0,1,-1,1
1461662005680948,-2,-10,8,-4,-7,-4,5,-1
1461662005680948,0,0,17,1,0,3,7,1
1461662005687951,-5,-9,-6,-10,-4,-3,-12,-4
1461662005687951,8,21,23,7,3,1,-3,-1
1461662005696951,0,-9,-28,3,2,1,3,-1
1461662005696951,-1,-1,2,-7,-6,-3,-11,-2
1461662005711913,-2,12,-1,-2,-1,0,3,2
1461662005711913,-4,-8,-11,2,3,2,4,0
1461662005718921,3,4,11,-10,-7,-3,-5,-3
1461662005718921,-2,6,2,3,-2,-2,-1,-3
1461662005733927,-4,-19,-17,-13,-6,-3,-1,-2
1461662005733927,8,17,13,20,11,3,5,1
1461662005740932,2,22,5,7,3,0,-2,-2
1461662005740932,-10,-26,-7,-2,1,1,-1,-1
1461662005755945,1,5,18,0,0,-2,2,0
1461662005755945,-6,-11,-16,-8,-6,-3,-3,-4
1461662005764949,1,-2,3,-5,-4,-1,0,0
1461662005764949,7,13,5,-3,-2,-2,0,2
1461662005771953,-5,-17,-33,-1,2,2,-1,-1
1461662005771953,1,3,11,-1,-3,-2,0,-2
1461662005777961,-11,-9,7,0,-3,-3,-4,-5
1461662005777961,1,7,23,3,2,1,3,2
1461662005793972,-2,-10,-27,-6,-6,-4,-3,-3
1461662005793972,3,-1,-15,4,-1,-2,1,4
1461662005800999,0,-5,-16,-11,-3,-1,1,-2
1461662005800999,-3,-3,-6,-3,-3,-2,-3,-2
1461662005825007,5,10,22,7,5,1,-1,0
1461662005825007,-12,-9,2,-2,-1,-2,0,-4
1461662005825993,-2,-8,6,1,-5,-3,-1,1
1461662005825993,0,4,-14,1,4,2,0,1
1461662005831995,-3,-11,-6,-9,-1,0,0,-2
1461662005831995,-2,8,14,8,1,0,-2,-3
1461662005839000,2,-3,-2,-3,-3,-2,-1,0
1461662005839000,-1,-3,-1,-4,-4,-4,-2,-1
1461662005854025,-9,5,-5,-3,-4,-3,-2,-4
1461662005854025,-2,-7,2,-3,-1,-1,0,-3
1461662005861074,-2,-2,4,-1,2,2,2,3
1461662005861074,3,2,-3,-1,-3,-1,1,1
1461662005877086,4,4,5,8,1,0,-1,2
1461662005877086,1,7,11,-4,-3,-1,-3,-2
1461662005879060,-1,-2,-3,4,4,1,-1,-1
1461662005879060,1,2,-3,1,0,-3,-2,-2
1461662005892071,-3,-5,28,0,-1,-1,-1,-1
1461662005892071,1,3,-13,-4,0,0,-1,-2
1461662005906077,0,-7,-5,2,0,0,1,1
1461662005906077,0,1,-22,-17,-9,-2,-1,-1
1461662005914083,4,7,11,19,13,3,2,3
1461662005914083,-14,-32,3,3,-1,0,-4,-5
1461662005921088,-2,5,-3,-5,-4,-1,-2,-3
1461662005921088,2,-4,14,6,2,-2,-2,-1
1461662005937099,-3,11,-14,-2,0,1,1,-1
1461662005937099,-4,-7,-6,-6,-5,-4,-2,0
1461662005939094,3,8,4,1,2,1,1,3
1461662005939094,-2,-3,5,-3,-5,-2,-2,-1
1461662005952096,-3,-7,-8,-5,-5,-3,-2,-4
1461662005952096,5,9,16,2,2,0,0,-1
1461662005958087,-1,-9,-25,-10,-5,-4,-2,0
1461662005958087,3,3,2,2,0,-1,1,0
1461662005974135,-1,-2,0,0,0,-1,-2,-1
1461662005974135,-5,-2,4,0,0,1,-1,-2
1461662005981140,1,2,4,-1,-3,0,0,-1
1461662005981140,-4,-6,-18,-1,-1,-1,1,0
1461662005997151,4,7,10,-2,-1,0,0,1
1461662005997151,-3,0,12,11,5,0,-4,-2
1461662005999129,0,-2,-7,-9,-5,-2,0,-2
1461662005999129,0,7,-4,11,-2,-2,-3,-3
1461662006011147,-2,-12,-1,-10,-1,2,1,1
1461662006011147,1,3,-21,0,-2,1,0,-1
1461662006018152,-3,0,-2,1,2,-1,-1,-1
1461662006018152,-5,-16,-10,-12,-5,-1,-1,-3
1461662006034152,5,8,3,0,-5,-4,-1,3
1461662006034152,6,10,4,-4,-1,-3,1,1
1461662006041157,-4,-14,-2,1,-1,0,-1,-2
1461662006041157,0,2,2,1,4,0,-1,-1
1461662006065161,-5,-7,-8,-3,-3,-2,-3,-2
1461662006065161,3,6,4,1,1,0,0,0
1461662006066161,-4,-7,-20,-9,-6,-2,-2,-3
1461662006066161,-1,2,11,10,6,1,0,1
1461662006071223,-2,-6,-3,-12,-7,-2,-1,-2
1461662006071223,-1,5,21,3,1,-1,-2,-1
1461662006080185,3,3,-11,-6,-2,1,2,2
1461662006080185,-1,-3,-18,5,3,-1,0,1
1461662006094222,-6,-12,-9,-1,-7,-3,-3,-5
1461662006094222,-2,5,22,-4,-4,-3,-3,-3
1461662006101211,3,0,12,7,4,0,0,-1
1461662006101211,1,14,-3,-15,-4,0,0,1
1461662006117222,0,-12,-1,-1,-5,-6,-3,-1
1461662006117222,-8,5,-32,-3,-1,-3,-3,-6
1461662006119204,2,9,12,7,2,-1,-2,0
1461662006119204,-3,-7,33,-6,-5,-2,1,-1
1461662006131224,0,-5,-22,3,2,2,0,1
1461662006131224,1,-8,0,-3,1,-1,-1,0
1461662006139229,-4,-2,-5,-3,-5,-2,-1,-4
1461662006139229,1,6,5,2,-2,-1,0,1
1461662006154236,-2,2,-3,7,8,2,0,-3
1461662006154236,-2,-6,-8,3,2,1,0,-1
1461662006161288,0,8,11,3,4,-1,0,0
1461662006161288,3,4,-6,16,5,3,1,0
1461662006176240,-2,-5,-8,-22,-8,-3,-3,-4
1461662006176240,3,4,3,16,3,1,2,1
1461662006185259,1,4,14,1,0,-1,0,0
1461662006185259,-4,-16,-11,-12,-12,-5,-2,-1
1461662006191289,-2,11,10,14,5,0,-1,-1
1461662006191289,1,7,4,-8,1,1,-1,-3
1461662006198294,-5,-9,-47,1,2,-1,-3,-4
1461662006198294,-4,-14,10,-6,0,2,1,0
1461662006214295,0,-2,-3,-7,-5,-4,-3,0
1461662006214295,-3,-6,5,-11,-8,-5,-4,0
1461662006221272,3,4,0,5,2,1,0,2
1461662006221272,1,1,-11,-12,-6,-3,-1,-1
1461662006237313,0,-3,-6,5,4,1,0,0
1461662006237313,-2,1,-3,-10,-4,-2,0,-2
1461662006239285,0,-5,4,7,0,-2,0,-1
1461662006239285,1,4,0,1,1,0,-3,0
1461662006251308,-2,3,22,-10,-8,-3,-2,-2
1461662006251308,-1,-8,-30,10,3,-1,-1,-1
1461662006260315,-3,-1,14,-2,-3,0,-2,-1
1461662006260315,0,-1,8,2,0,1,0,0
1461662006274367,0,5,-2,5,9,1,2,0
1461662006274367,-2,-9,-13,-20,-12,-4,-4,-2
1461662006281333,-1,-2,2,6,1,-2,-1,-2
1461662006281333,1,3,1,5,0,-1,0,0
1461662006297382,-5,-8,-6,-7,-7,-4,-3,-4
1461662006297382,4,10,9,1,0,0,0,2
1461662006298339,-1,-1,-3,-4,-3,-1,-1,0
1461662006298339,-2,1,3,-3,0,-1,-2,-2
1461662006311336,-3,-3,-6,-2,-4,-1,-1,-1
1461662006311336,3,-2,-4,-3,-1,-1,0,1
1461662006320343,-6,0,5,-5,-1,0,-1,-2
1461662006320343,1,4,8,3,3,-1,3,0
1461662006334350,-1,-3,-9,3,-1,1,-1,-2
1461662006334350,-2,-1,6,1,-2,-1,-1,0
1461662006348360,1,1,0,-12,-6,-2,0,1
1461662006348360,-5,-7,0,10,4,0,-1,-1
1461662006357367,-1,6,17,-3,-6,-1,-1,-3
1461662006357367,-5,-6,-24,-7,-2,-1,-1,-2
1461662006358368,3,7,8,15,8,2,1,-1
1461662006358368,-2,-8,-12,-6,-3,0,-1,-1
1461662006370377,-3,-16,2,6,5,1,1,0
1461662006370377,-1,4,10,-6,-6,-3,-2,-3
1461662006379383,-1,-3,-1,-14,-7,-3,-3,-2
1461662006379383,2,4,-4,3,0,-2,-1,-1
1461662006394392,1,4,1,-2,-6,-2,-1,0
1461662006394392,-7,-8,3,0,3,0,-1,-3
1461662006400397,0,-1,6,3,-1,-1,-1,-1
1461662006400397,1,-4,-5,-2,3,2,1,-1
1461662006417408,4,5,-7,-5,-3,-1,-2,0
1461662006417408,-1,-5,-6,1,0,-3,0,-1
1461662006418409,2,1,2,1,0,-2,2,1
1461662006418409,3,6,1,-13,-6,-1,-2,1
1461662006430418,-3,-8,-11,4,3,0,0,-2
1461662006430418,-2,2,7,-2,-1,-1,1,-1
1461662006439424,-3,-4,-4,0,-1,-2,-2,-1
1461662006439424,-1,1,4,-12,-10,-7,-2,-2
1461662006454435,1,2,-3,5,2,0,0,1
1461662006454435,2,1,5,3,6,0,0,0
1461662006460438,1,4,-3,0,-1,0,1,-1
1461662006460438,-3,-4,-3,0,-1,0,-1,0
1461662006484457,0,3,5,0,-4,-2,-3,-1
1461662006484457,-4,-7,-8,-13,-6,-1,-4,-3
1461662006486458,1,-3,-7,3,-1,-3,1,0
1461662006486458,1,7,10,3,3,0,-2,1
1461662006490462,-4,-6,-1,0,0,0,-2,-1
1461662006490462,2,3,15,4,-1,-1,-1,-1
1461662006499467,-3,0,-13,-7,-4,-1,-1,0
1461662006499467,-3,-10,-5,4,0,0,1,1
1461662006514535,-2,-2,-9,-6,-3,-2,-1,-2
1461662006514535,-3,-3,0,5,1,0,0,-1
1461662006520494,0,-2,3,-10,-2,2,0,-1
1461662006520494,0,-1,-4,7,-2,-1,-2,0
1461662006536551,2,5,5,6,5,0,0,0
1461662006536551,-4,-1,5,4,-3,-1,-2,-1
1461662006543565,-5,-14,-14,-11,-3,-2,0,0
1461662006543565,-2,1,-6,-7,-1,0,0,-1
1461662006550505,-3,-5,-8,-1,-5,-2,-2,-3
1461662006550505,3,4,3,-8,1,-1,1,0
1461662006559510,1,-1,-4,3,-2,-3,-3,1
1461662006559510,1,1,8,-1,0,1,-1,0
1461662006574520,-1,-2,-3,-6,-3,-1,-1,-4
1461662006574520,-4,0,-6,5,0,-1,-1,-2
1461662006580584,1,-1,5,-4,-4,-1,-1,-1
1461662006580584,2,-1,2,1,2,-2,-1,-1
1461662006596595,-2,-1,-8,-2,-3,-1,-2,-1
1461662006596595,-1,1,-2,-6,-5,-1,-3,-2
1461662006603556,-5,-7,6,2,2,-2,-2,-2
1461662006603556,-1,-3,-12,7,2,0,1,0
1461662006610605,-3,2,3,-7,-2,-2,-1,-1
1461662006610605,-2,-3,-3,0,-2,-2,-2,-2
1461662006619567,3,3,3,6,2,0,0,-1
1461662006619567,-2,-5,7,-5,-1,-2,-3,1
1461662006634579,0,0,-3,-4,-2,-3,-3,-2
1461662006634579,1,-3,-10,-5,0,1,0,1
1461662006640627,2,-2,13,14,1,1,0,0
1461662006640627,1,6,-8,-7,0,0,0,1
1461662006657597,1,2,4,-2,-1,-1,-1,-1
1461662006657597,1,-1,-5,-13,-7,-3,-3,-2
1461662006663641,0,-1,1,14,5,1,2,-1
1461662006663641,0,-3,-2,-5,-2,-1,-1,-2
1461662006679654,-5,2,4,3,0,-1,-1,-3
1461662006679654,2,2,-1,3,0,-2,-2,-1
1461662006681654,-3,1,-1,-10,-3,-2,0,0
1461662006681654,-4,-6,-6,2,-2,0,-2,-2
1461662006702623,-3,-6,-6,-6,-2,-1,-1,-2
1461662006702623,4,1,-4,-4,-4,0,0,-1
1461662006703611,-9,-1,6,0,1,-2,0,-2
1461662006703611,1,1,0,3,2,1,2,2
1461662006716634,-2,-4,-2,-6,-2,-3,-3,-1
1461662006716634,-5,-10,-4,11,0,0,-1,-1
1461662006723637,3,0,-1,-15,-9,-4,-3,-1
1461662006723637,3,7,4,15,7,1,1,1
1461662006740689,-1,-2,1,-3,0,-2,-2,0
1461662006740689,0,10,8,4,0,-2,1,-1
1461662006741639,0,-19,-15,-5,-1,-2,0,1
1461662006741639,-3,-5,-5,-3,-3,-2,-3,-2
1461662006753659,-2,0,5,1,-3,-2,-2,-4
1461662006753659,-2,2,1,-8,1,0,-1,-2
1461662006760711,4,6,-2,4,0,0,0,-1
1461662006760711,0,-1,-3,-7,-1,-1,-1,-2
1461662006776722,-3,-7,2,3,0,-1,-1,0
1461662006776722,-2,-1,-4,-2,-2,-2,-1,-3
1461662006783727,1,5,-9,-6,-2,0,0,-1
1461662006783727,-1,-1,8,1,-7,-3,-2,0
1461662006799692,1,4,-2,-5,0,0,1,0
1461662006799692,-1,-4,-4,1,-1,-1,0,1
1461662006801693,-1,0,-4,-4,-3,-1,-2,-2
1461662006801693,-4,0,-12,-2,-1,0,-1,-3
1461662006813752,-2,-19,-6,-2,-1,0,0,-2
1461662006813752,0,2,-13,7,2,-3,-2,-2
1461662006820724,1,2,6,-7,-6,-1,0,0
1461662006820724,5,7,3,0,0,-2,-1,1
1461662006844727,-3,2,-2,7,4,2,-1,-1
1461662006844727,0,-6,7,10,-1,-1,1,-1
1461662006846713,4,14,3,-1,-1,0,-2,0
1461662006846713,-6,-19,-10,-5,-2,-1,0,-3
1461662006859739,2,5,-6,-5,-3,-2,-3,-3
1461662006859739,-3,-4,-1,-5,-4,-1,-2,-2
1461662006861740,-1,6,5,-1,-3,-1,-2,0
1461662006861740,1,0,3,9,4,1,2,2
1461662006873731,-6,-3,-1,2,-2,-2,-1,-3
1461662006873731,0,1,-1,-7,-3,-2,0,-1
1461662006880756,-2,-7,-4,2,1,-1,1,-1
1461662006880756,0,1,-5,-6,-5,0,-1,0
1461662006904754,-2,-2,0,2,4,1,0,-2
1461662006904754,-1,6,-1,-1,-1,2,-3,1
1461662006906754,0,0,8,22,10,1,2,2
1461662006906754,-3,0,0,-5,-1,-3,0,0
1461662006919764,-1,2,3,1,-4,-2,-1,-2
1461662006919764,-2,-5,-11,-13,-9,-3,-2,-2
1461662006921766,-2,-7,-5,4,2,1,0,-2
1461662006921766,1,-4,-8,-5,-4,-2,-2,0
1461662006934839,-2,-6,-3,1,1,0,-2,-1
1461662006934839,0,0,6,5,0,-2,1,-1
1461662006948788,0,-5,-6,-11,-4,-3,-2,0
1461662006948788,3,12,8,-3,-1,-2,-1,-1
1461662006956793,-3,-1,-3,1,-3,-1,0,-4
1461662006956793,-2,-7,6,0,-2,-1,0,-1
1461662006963798,-3,-5,-5,2,1,1,0,0
1461662006963798,0,2,7,-3,-2,-1,0,-2
1461662006979809,0,-2,-5,-4,-2,-2,-1,0
1461662006979809,-2,-1,0,-3,-2,-2,-3,0
1461662006981809,-2,1,2,0,1,-1,0,0
1461662006981809,-1,-3,0,-4,1,0,-1,-1
1461662006993817,-2,-4,2,2,-2,-2,-1,1
1461662006993817,0,6,5,-1,0,2,1,0
1461662007000822,2,-1,-5,-9,-4,-1,-3,0
1461662007000822,-2,1,5,9,1,-1,-1,0
1461662007016835,0,3,4,-20,-5,-4,-1,0
1461662007016835,-1,-6,3,25,10,1,-1,-2
1461662007023837,1,3,-7,-8,-2,-2,0,0
1461662007023837,-1,-4,7,8,0,0,1,-1
1461662007039921,-1,-2,-3,7,1,0,-1,-3
1461662007039921,0,-1,5,-16,-5,-3,-1,2
1461662007040897,-5,-4,-5,-8,-4,-2,1,-1
1461662007040897,2,6,0,2,-2,-1,-2,-2
1461662007053909,-3,1,-4,-8,-4,-1,-2,-3
1461662007053909,-1,-8,-8,0,-1,-1,-1,-2
1461662007060936,3,-2,-1,3,-1,1,-2,1
1461662007060936,0,3,2,-2,-1,-1,0,1
1461662007076967,-2,0,1,1,1,0,0,0
1461662007076967,0,6,5,5,1,0,-1,-2
1461662007083943,2,2,8,-5,-5,-3,-1,0
1461662007083943,-4,-5,-8,1,5,2,-1,-1
1461662007099954,-1,-7,-1,3,3,0,-2,-2
1461662007099954,1,1,-4,-4,-2,-3,0,0
1461662007100926,0,-5,-6,1,0,-1,0,-1
1461662007100926,0,2,8,11,1,-1,0,-1
1461662007113963,-2,-2,-8,3,-1,0,-2,-2
1461662007113963,0,2,-4,-14,-4,-2,-2,-1
1461662007120940,-2,-2,5,10,5,0,0,0
1461662007120940,0,0,-3,-8,-3,-3,-2,-1
1461662007144973,1,3,3,-8,-4,-2,0,0
1461662007144973,-3,-8,-4,4,1,-1,-1,-1
1461662007145973,2,-1,1,-5,-5,-3,0,-3
1461662007145973,-2,-4,-16,-17,-5,-4,-3,-3
1461662007159983,-1,2,-3,11,1,-1,1,1
1461662007159983,-6,7,5,-1,0,1,1,0
1461662007160984,-4,-3,-4,-11,-2,3,12,-1
1461662007160984,1,-3,11,13,4,1,-15,0
1461662007181987,3,5,-1,-9,-7,-6,-5,-4
1461662007181987,1,-10,-4,9,7,-1,-3,0
1461662007183987,-3,-4,-12,-15,-11,-4,-3,-3
1461662007183987,-6,-11,4,-16,-4,2,10,3
1461662007196996,3,6,5,12,8,2,-9,0
1461662007196996,1,-4,3,6,-2,0,5,-2
1461662007203017,5,19,-2,8,7,1,0,3
1461662007203017,1,-10,-9,-2,-2,0,0,1
1461662007220029,-11,-8,0,-18,-14,-6,-7,-7
1461662007220029,-1,0,1,22,10,5,-2,-6
1461662007221034,0,-4,2,-8,-4,4,9,4
1461662007221034,0,-5,-2,-1,-1,1,2,1
1461662007233033,-2,-13,-13,2,5,1,17,3
1461662007233033,2,1,2,-7,-7,-9,-31,-3
1461662007242062,-2,4,13,13,9,0,-22,-6
1461662007242062,2,10,7,-19,-17,-6,6,7
1461662007256049,3,8,1,35,17,0,-31,-9
1461662007256049,-13,-13,-8,-23,-11,1,44,3
1461662007263098,0,-13,10,14,13,9,19,9
1461662007263098,11,22,-11,22,8,-8,-46,-2
1461662007280110,-25,-11,2,16,-9,-11,-6,-17
1461662007280110,14,8,-11,-17,4,-9,-15,2
1461662007281068,8,14,-1,-45,-18,-8,-5,2
1461662007281068,2,-1,23,54,13,5,26,-1
1461662007293124,5,-6,-14,-23,-2,12,25,10
1461662007293124,-4,35,-6,-15,-13,0,-10,-10
1461662007302097,-11,-41,11,9,4,2,3,-2
1461662007302097,23,9,-15,-36,-13,1,0,3
1461662007317103,-24,-22,-6,21,19,7,4,-4
1461662007317103,-9,-5,2,-5,-4,13,22,-8
1461662007323102,-2,13,-12,-46,-25,-25,-59,-11
1461662007323102,5,5,20,25,6,-20,-17,-2
1461662007340115,16,5,-30,-9,-7,-14,-1,4
1461662007340115,16,-40,2,-1,11,12,22,21
1461662007341105,5,13,22,13,-9,8,-6,2
1461662007341105,-29,-37,-26,-62,-25,-2,30,-8
1461662007353115,15,-4,10,-15,-2,11,36,24
1461662007353115,-1,18,21,83,47,10,-3,8
1461662007362109,-9,-21,-20,-20,-14,-16,-47,-24
1461662007362109,-9,-1,11,19,-3,-15,-38,-18
1461662007377159,4,39,16,49,38,6,-11,-14
1461662007377159,-1,-18,5,-27,-23,-1,5,-6
1461662007383163,7,4,-1,-1,2,17,86,26
1461662007383163,-2,-2,-2,9,18,10,-15,18
1461662007400138,-20,-41,-16,-72,-36,-9,-17,-16
1461662007400138,-3,-27,0,55,15,8,58,19
1461662007401139,8,-41,-10,-15,-8,-13,-50,-5
1461662007401139,-12,-23,-5,-21,-13,2,6,-35
1461662007414164,-16,-2,5,-26,-18,10,-11,6
1461662007414164,33,7,-13,-27,2,-7,-23,18
1461662007422154,6,14,30,-92,-61,-46,5,15
1461662007422154,3,-6,-20,88,71,16,-6,14
1461662007436174,-13,-27,-19,53,29,1,-43,-36
1461662007436174,-8,-37,-11,-105,-52,-7,-1,-13
1461662007443179,12,-16,-1,118,68,44,75,15
1461662007443179,-12,-21,37,-86,-40,-8,8,-2
1461662007459217,21,51,37,36,5,11,14,7
1461662007459217,-29,-17,-53,-6,6,4,-44,-21
1461662007466184,18,35,-4,7,11,-26,-48,1
1461662007466184,-22,41,-11,-60,-17,4,31,-4
1461662007473227,3,24,32,-46,-25,15,79,17
1461662007473227,64,62,22,65,27,-8,-12,28
1461662007482197,-50,-33,-18,34,3,0,-54,-14
1461662007482197,25,22,-14,35,13,-13,4,2
1461662007497244,0,47,-15,-78,-46,-33,-70,-16
1461662007497244,-15,72,-12,-54,-15,17,61,-25
1461662007503210,-22,14,4,68,58,56,35,-3
1461662007503210,18,16,13,-5,-7,-13,-29,22
1461662007519221,-40,-76,-39,-75,-33,-49,-73,-33
1461662007519221,-8,-6,26,-2,-9,-18,27,-6
1461662007526284,53,-23,23,-3,15,15,-35,2
1461662007526284,-21,-30,-30,43,11,7,17,-3
1461662007533260,9,23,4,0,1,14,55,20
1461662007533260,1,47,-6,44,35,10,24,6
1461662007542269,-16,86,-8,-40,-28,10,68,-1
1461662007542269,-20,6,-6,-56,-34,0,-43,-18
1461662007556255,-3,26,18,-97,-42,-24,-30,4
1461662007556255,32,54,23,74,55,2,-71,-11
1461662007565259,-4,-86,-14,37,25,0,32,2
1461662007565259,-7,-121,-16,-10,2,36,40,16
1461662007580265,-8,-78,-16,-19,-16,-20,-38,-15
1461662007580265,-46,-56,11,-50,-50,-37,44,15
1461662007586274,26,16,-9,16,4,-9,15,16
1461662007586274,25,-5,-18,-15,-10,-1,35,28
1461662007593289,-26,-24,9,-17,-14,10,-38,-2
1461662007593289,-21,-40,26,96,53,-14,-99,-48
1461662007602282,-19,37,-11,-48,-39,-62,-35,-44
1461662007602282,19,122,11,-40,-22,-7,8,-10
1461662007616293,34,127,30,40,28,40,85,41
1461662007616293,-4,119,-12,32,30,33,16,4
1461662007623352,-19,125,-11,-86,-43,1,15,-15
1461662007623352,-19,62,-26,68,45,9,-13,-8
1461662007639328,-2,-91,7,55,13,11,-7,39
1461662007639328,-26,-102,-7,-128,-51,-2,-15,-17
1461662007647326,19,-128,23,17,30,22,20,-12
1461662007647326,-5,-88,-19,64,22,-18,-84,-20
1461662007663340,20,54,13,19,10,-43,44,22
1461662007663340,1,-31,-19,-65,-27,0,11,8
1461662007664343,8,-17,6,-22,3,7,-23,-3
1461662007664343,-19,100,4,-52,-41,-15,42,14
1461662007676332,-32,72,-25,29,15,21,-52,-26
1461662007676332,-34,42,12,-11,-4,0,-88,-35
1461662007683394,-15,-8,-35,-72,-19,-3,-6,-9
1461662007683394,60,-128,32,57,0,-50,13,15
1461662007699362,19,-128,29,-2,-14,-3,30,29
1461662007699362,9,-84,-21,13,42,29,26,0
1461662007705364,3,-88,-16,84,41,27,-10,-27
1461662007705364,-42,-81,-26,-114,-78,-18,-8,-18
1461662007722377,60,-103,58,80,88,25,20,27
1461662007722377,-25,7,10,-3,-21,-2,12,13
1461662007723380,-33,82,-16,-56,-58,0,25,-15
1461662007723380,-42,88,19,73,87,26,-29,-29
1461662007736392,29,-56,-30,-106,-31,4,-25,25
1461662007736392,30,1,15,-53,3,-7,2,14
1461662007745382,0,80,-11,36,22,-12,4,-8
1461662007745382,18,111,32,-111,-49,-12,-39,0
1461662007759422,-43,-80,-23,80,13,-43,-46,-11
1461662007759422,11,-1,28,37,7,-7,12,19
1461662007766412,-36,94,-17,-65,-47,-15,-13,-24
1461662007766412,17,50,-7,39,9,21,45,-1
1461662007782417,-18,-67,-2,-29,9,39,34,-4
1461662007782417,-14,22,2,-25,-20,4,21,0
1461662007784418,-1,81,4,-6,-16,-25,-24,-24
1461662007784418,31,15,30,74,40,20,-2,9
1461662007796418,5,-39,-63,-128,-80,-15,-1,0
1461662007796418,-12,51,-9,69,45,-3,68,-6
1461662007804443,3,45,23,41,20,43,34,-3
1461662007804443,6,18,-29,-128,-62,-7,-87,-6
1461662007819452,46,-12,-7,127,44,-37,75,69
1461662007819452,-73,28,-19,-73,-41,11,-52,-44
1461662007825458,72,33,20,34,27,-26,-26,20
1461662007825458,37,20,-9,-29,-4,-34,-10,45
1461662007849459,-8,-1,-13,-33,-30,-2,-3,-25
1461662007849459,7,18,-18,-21,-21,-3,-4,-11
1461662007851461,-14,32,20,-15,1,16,22,16
1461662007851461,-12,23,5,-12,-15,16,65,-7
1461662007855459,29,-5,9,58,52,21,-39,-34
1461662007855459,-7,27,0,-62,-24,-9,-15,-17
1461662007864466,-54,34,-28,63,-3,-27,-51,-21
1461662007864466,2,11,-8,-38,15,12,47,25
1461662007879541,-43,-4,33,-79,-22,11,23,-25
1461662007879541,57,27,-22,-24,8,22,-17,2
1461662007885539,9,32,-6,-105,-52,-10,34,29
1461662007885539,-34,5,-10,25,7,1,0,23
1461662007909500,33,4,-2,25,17,-10,-4,-7
1461662007909500,-29,29,-16,-16,-22,0,-3,-29
1461662007911499,-10,25,26,-20,-23,-2,-4,36
1461662007911499,9,3,-11,27,8,-37,-46,-9
1461662007915509,76,9,-34,-29,-11,17,-26,-1
1461662007915509,-34,27,35,43,-1,-36,23,14
1461662007924526,13,21,-16,-34,8,-1,8,18
1461662007924526,14,5,39,10,15,35,26,-11
1461662007939520,-33,12,-18,20,16,10,-11,-25
1461662007939520,8,21,5,-16,2,6,1,-9
1461662007945526,9,21,87,103,50,20,-4,2
1461662007945526,-42,3,-67,-75,-32,-12,-4,-8
1461662007962546,-17,11,-23,-35,-16,-4,-9,-30
1461662007962546,57,24,21,49,4,21,57,48
1461662007963535,-13,21,-41,-46,1,26,-26,16
1461662007963535,-23,-1,42,36,-4,-29,-35,-23
1461662007975602,3,11,5,5,-4,9,23,-6
1461662007975602,31,20,-28,-13,-5,-2,6,18
1461662007984583,54,20,-20,-27,-18,-56,-72,31
1461662007984583,-49,-33,5,8,-15,-15,30,1
1461662007999560,-14,12,4,-34,-4,-6,-24,-30
1461662007999560,-1,24,-1,11,-12,0,-3,-1
1461662008022606,6,19,0,-49,-7,17,7,-14
1461662008022606,22,5,-3,78,36,23,14,7
1461662008023579,-27,12,-21,-55,-18,-3,6,-18
1461662008023579,-11,23,9,76,26,5,0,-6
1461662008025580,-16,17,-21,-4,-1,-2,10,-1
1461662008025580,-13,9,42,-2,3,-7,-22,-18
1461662008035616,4,14,-17,-33,-28,-1,18,20
1461662008035616,14,37,10,32,28,22,19,22
1461662008044592,-53,19,-21,-5,-1,-13,-16,-20
1461662008044592,9,3,-3,-18,-10,9,-25,19
1461662008058619,-2,11,3,32,5,-39,-39,-7
1461662008058619,0,21,4,-42,-33,-40,-15,-9
1461662008065610,13,18,3,27,12,21,-18,-6
1461662008065610,26,-4,3,-37,-22,-16,33,26
1461662008082621,19,15,10,23,15,24,8,-15
1461662008082621,-66,21,-42,-13,-3,-13,-18,-17
1461662008083619,7,19,4,42,13,-7,15,-2
1461662008083619,19,1,-1,47,12,10,3,-7
1461662008095667,24,14,-19,-60,-16,9,9,4
1461662008095667,-38,21,16,52,17,-3,-9,-18
1461662008104644,25,16,29,39,20,9,22,7
1461662008104644,37,-15,-31,-37,-14,-1,-6,11
1461662008119675,-40,13,40,29,22,4,28,4
1461662008119675,10,23,-33,-36,-22,-7,-45,-23
1461662008125678,10,18,-10,-40,-20,-4,-13,13
1461662008125678,-35,14,-9,6,12,22,47,16
1461662008142677,-23,15,10,10,-6,1,-9,-1
1461662008142677,29,18,5,-25,-8,-52,-33,12
1461662008143678,14,15,0,8,-4,-32,-5,-1
1461662008143678,-17,-18,-10,-9,0,24,-22,-13
1461662008156671,-17,13,12,29,15,28,22,3
1461662008156671,11,22,-11,-73,-30,18,3,-9
1461662008179747,-16,18,-5,43,7,-11,5,1
1461662008179747,6,5,-31,-71,-18,-16,8,-10
1461662008180691,15,12,47,26,30,16,1,-5
1461662008180691,4,20,-11,-27,-3,0,-13,7
1461662008185750,-25,17,-14,-1,5,-11,13,-6
1461662008185750,5,-14,-20,-17,-2,3,-4,-5
1461662008202716,-24,10,-3,-15,-12,-13,-18,-13
1461662008202716,36,17,13,2,-2,-6,5,9
1461662008203706,24,18,-4,-34,-19,8,20,6
1461662008203706,-51,43,5,7,-5,-9,-17,-2
1461662008215714,-1,127,-16,19,11,-9,-10,0
1461662008215714,-16,-128,2,2,5,5,2,-8
1461662008232735,54,-128,4,0,9,28,42,15
1461662008232735,30,-30,6,14,12,11,-11,5
1461662008238760,-23,93,1,1,-9,4,-33,-6
1461662008238760,-22,51,-2,1,-3,1,4,-10
1461662008245764,-7,-1,-6,-4,1,0,-3,-2
1461662008245764,8,63,25,31,-4,-24,14,8
1461662008262762,-16,109,-39,-89,-50,-24,0,-8
1461662008262762,10,45,13,55,28,4,-7,-1
1461662008263747,-19,-29,5,47,23,-3,-12,-2
1461662008263747,-1,54,15,16,9,-1,5,-5
1461662008275795,8,74,15,-5,1,3,0,0
1461662008275795,2,-15,-24,-29,-18,1,-6,-1
1461662008284764,-12,-13,-6,-16,-13,-2,-1,-9
1461662008284764,20,37,-6,0,2,9,0,0
1461662008298775,-2,28,7,12,4,2,2,9
1461662008298775,2,-15,5,-6,-1,9,19,18
1461662008305777,-35,-11,9,-4,-1,2,-23,-9
1461662008305777,19,24,-9,-13,-7,-25,6,-2
1461662008329823,20,8,4,17,9,9,-15,-3
1461662008329823,3,-5,9,11,3,-1,1,2
1461662008331811,35,-7,-19,-26,-16,34,25,17
1461662008331811,-55,1,12,-71,-36,-25,-37,-29
1461662008335827,-14,15,9,68,47,-2,21,5
1461662008335827,-9,-1,-9,-30,-8,-16,-11,-4
1461662008344804,3,-13,7,10,5,-17,-9,-10
1461662008344804,15,1,-2,3,10,7,13,3
1461662008358831,-9,12,-8,-13,-5,-2,1,-2
1461662008358831,1,0,14,14,5,0,-6,0
1461662008365819,-7,-15,-2,-24,-7,-3,4,6
1461662008365819,0,5,-13,13,5,10,0,-9
1461662008381892,-12,37,-21,-5,-13,-15,-7,-13
1461662008381892,14,47,-7,1,0,9,1,14
1461662008383835,23,84,6,-9,-2,-13,-2,3
1461662008383835,-5,103,9,23,17,20,2,-7
1461662008395858,-43,73,-14,-1,-7,-1,0,-9
1461662008395858,28,91,3,-18,-17,-19,-3,13
1461662008412882,-29,38,2,1,3,7,-5,-4
1461662008412882,-24,-13,-1,12,9,4,-10,-25
1461662008418886,6,-61,-13,-20,-12,-2,5,-6
1461662008418886,11,-57,2,-48,-29,-16,-3,10
1461662008425891,3,-37,2,65,36,7,8,9
1461662008425891,5,-26,16,34,22,11,4,-10
1461662008441888,-1,-10,12,8,5,-5,4,-2
1461662008441888,1,-27,-8,-8,-12,-8,-3,8
1461662008448877,0,-12,4,-33,-9,-11,-11,-1
1461662008448877,-12,-13,-24,-11,-9,0,0,-9
1461662008455898,8,30,-1,5,0,-5,-2,2
1461662008455898,8,18,11,22,13,-4,-2,8
1461662008464889,-14,0,-10,-15,-10,-7,0,-4
1461662008464889,-7,2,-9,3,8,23,9,-7
1461662008478898,1,14,1,-12,-11,-14,-5,0
1461662008478898,2,-8,-10,9,3,-5,0,3
1461662008485903,-7,2,10,-2,-3,-5,-4,-3
1461662008485903,-1,4,11,-5,-2,6,6,-6
1461662008501915,7,-9,-15,0,1,15,1,-2
1461662008501915,-2,-11,1,4,-1,3,5,2
1461662008508920,-5,-15,-3,0,1,-12,-3,1
1461662008508920,0,25,-3,-1,1,-3,-5,-8
1461662008515925,0,-12,8,0,-5,-7,-6,-3
1461662008515925,5,-23,0,6,4,7,3,3
1461662008524931,-3,-12,-13,-9,-5,5,1,-1
1461662008524931,1,1,3,0,1,-3,-4,-3
1461662008539015,0,8,11,3,-3,-8,-2,-1
1461662008539015,-3,-24,-9,0,-1,3,-2,1
1461662008546021,2,-20,-5,-2,2,3,0,1
1461662008546021,-5,-19,-7,-6,-2,-2,-4,-6
1461662008561050,2,-12,4,-7,-3,-5,-1,4
1461662008561050,-2,32,11,4,1,-1,1,1
1461662008569997,-2,10,8,-3,-2,6,2,0
1461662008569997,0,-9,17,3,-1,-4,0,0
1461662008585075,-3,-35,-15,-26,-16,-9,-6,-3
1461662008585075,2,-30,-20,26,11,5,2,5
1461662008586009,0,-31,0,13,10,3,2,3
1461662008586009,-5,-36,-17,-3,0,-1,-2,-2
1461662008600041,1,-23,3,-2,-4,-5,-3,1
1461662008600041,-3,-18,0,-11,-5,-1,0,1
1461662008607046,-2,-16,-1,-6,-5,1,-1,-3
1461662008607046,-2,-15,9,0,1,-1,-2,-4
1461662008622057,1,-12,2,6,2,2,-1,-2
1461662008622057,-1,-23,-10,-4,-4,1,0,-2
1461662008628044,3,-6,7,-4,0,2,-1,-2
1461662008628044,3,-11,-2,-1,-3,-6,-4,-2
1461662008645051,-6,-9,-5,-2,-1,-1,-3,-4
1461662008645051,1,-3,13,2,1,0,2,1
1461662008646052,-3,-11,-9,-7,-7,-4,0,-1
1461662008646052,-1,0,-12,0,1,-1,0,-2
1461662008659100,0,-3,-4,4,-2,-3,-2,-2
1461662008659100,-1,-5,7,-15,-6,-2,1,0
1461662008666080,-3,0,13,-5,-4,-3,-3,-1
1461662008666080,7,11,16,25,12,3,2,1
1461662008682077,0,2,-8,8,4,1,2,2
1461662008682077,-3,-9,-15,-6,-2,-2,-3,-1
1461662008688121,-4,2,-5,-7,-7,-3,-1,-3
1461662008688121,-2,-2,-8,-17,-8,-4,-3,-6
1461662008705105,2,4,6,9,3,-1,0,-1
1461662008705105,-1,6,8,8,2,0,-1,0
1461662008706095,-2,1,-13,2,2,0,-1,2
1461662008706095,-2,-1,3,-6,-4,-2,-3,-3
1461662008719115,0,5,4,0,1,-2,1,-1
1461662008719115,0,0,0,-5,0,-1,0,1
1461662008733114,-3,-1,4,3,1,2,0,-3
1461662008733114,0,0,-2,-4,-4,1,-2,-3
1461662008742120,-1,-3,-6,-4,-3,0,1,-6
1461662008742120,-3,-1,-2,-4,-1,1,-2,-13
1461662008748182,-2,1,1,1,-1,0,-2,-20
1461662008748182,-3,-4,-2,0,-1,-2,1,-22
1461662008765193,-1,1,0,-1,-2,-2,0,-25
1461662008765193,0,0,2,0,-3,-1,-2,-20
1461662008766151,-1,0,-3,-4,-3,1,-1,-17
1461662008766151,0,3,-11,-10,-1,-1,-2,-12
1461662008779205,-1,3,1,3,2,0,-1,-6
1461662008779205,2,7,10,12,5,0,0,5
1461662008786208,0,-2,1,3,-2,-2,0,11
1461662008786208,-3,1,2,-1,-3,-2,-2,14
1461662008802166,1,-2,-5,-7,-4,-2,1,20
1461662008802166,-1,2,-11,-8,-3,-2,0,18
1461662008808191,-2,-1,0,8,3,2,1,18
1461662008808191,-2,-3,-8,-1,-1,-2,-2,14
1461662008825194,1,1,4,1,0,-2,-2,13
1461662008825194,-1,-1,1,-3,-2,-2,-1,8
1461662008826181,0,0,-2,-3,1,1,1,6
1461662008826181,-1,0,-3,-3,-3,-1,-2,1
1461662008839203,3,4,1,-1,-3,-1,-1,1
1461662008839203,-2,-4,-1,1,2,0,-1,-4
1461662008846209,0,2,-2,-5,-2,-2,0,-4
1461662008846209,-4,-3,0,2,-1,0,-1,-8
1461662008861242,1,5,3,-3,-1,0,0,-4
1461662008861242,0,-7,-11,-6,-6,0,-2,-4
1461662008868248,0,4,1,-4,0,0,-1,-3
1461662008868248,2,2,4,7,3,1,2,-2
1461662008885261,-1,-4,-4,1,-1,-2,-1,-1
1461662008885261,2,2,6,1,-1,1,0,-1
1461662008887236,-2,1,1,-4,0,-1,-2,-2
1461662008887236,-2,0,-7,-2,-2,-3,-4,-4
1461662008898289,-4,-2,7,10,1,0,-1,-4
1461662008898289,1,0,-4,2,4,1,0,-1
1461662008907249,3,-2,-2,-2,-3,-2,0,-2
1461662008907249,-5,-6,1,-6,-4,-3,-3,-2
1461662008922248,-3,3,-8,-3,-1,0,0,-1
1461662008922248,-1,14,2,-5,-3,-2,0,1
1461662008928280,-5,-5,-6,-1,0,1,-3,0
1461662008928280,-6,-3,-2,-1,-1,-3,-2,-2
1461662008945268,-1,-10,-4,-5,-3,-2,-1,1
1461662008945268,-1,-6,3,1,1,-1,-1,3
1461662008946268,2,-1,1,1,-1,-1,-1,3
1461662008946268,1,-4,-2,-3,-2,-2,-4,0
1461662008958273,-3,-5,-5,-2,-2,-1,0,4
1461662008958273,0,-3,-1,-3,-3,-1,-1,3
1461662008967281,2,-2,1,15,4,0,-1,5
1461662008967281,-2,-1,-5,-13,-2,-1,-1,1
1461662008981289,0,1,0,3,2,-1,0,4
1461662008981289,-4,-5,-1,-11,-8,-5,-2,3
1461662008988328,-2,-1,4,4,3,0,2,6
1461662008988328,0,2,3,26,4,0,-1,8
1461662009004313,2,-1,-2,-3,1,-2,-2,11
1461662009004313,2,0,-1,-4,0,0,-1,13
1461662009012338,0,2,-3,-10,-5,-2,-3,9
1461662009012338,-1,-2,-6,-8,-3,-1,-3,7
1461662009018317,-2,3,10,-3,-2,-1,-3,5
1461662009018317,-1,0,1,4,1,0,1,2
1461662009035340,-1,6,-1,-6,-4,-2,-1,2
1461662009035340,-3,-10,-5,-1,-3,1,-1,1
1461662009041347,1,2,-2,-2,-3,0,1,-1
1461662009041347,-2,-1,0,2,2,1,-1,-3
1461662009048351,-1,-2,-1,1,-1,-2,-1,-2
1461662009048351,0,2,1,-6,-3,0,-1,-1
1461662009064347,0,-3,-3,1,-1,-1,-1,-3
1461662009064347,-1,-1,-2,2,1,-1,0,-2
1461662009072352,1,2,0,-3,-2,-2,-1,-4
1461662009072352,-1,3,4,-5,-3,-3,-1,-5
1461662009094407,-4,-4,-14,-32,-8,-4,0,-4
1461662009094407,1,3,15,55,12,2,-1,-2
1461662009096371,-3,-5,-1,3,1,1,-1,-3
1461662009096371,-2,-1,-1,-3,-2,-2,-3,-5
1461662009101385,0,3,0,0,-2,-1,0,-4
1461662009101385,-1,-1,-6,-19,-6,-4,-1,-4
1461662009108418,-3,-3,-3,-4,-2,-2,-2,-4
1461662009108418,0,1,4,-3,-3,-1,1,-5
1461662009124402,-2,-2,-5,2,0,0,-2,-4
1461662009124402,0,1,0,-10,-5,0,-1,-3
1461662009126393,-1,1,5,10,0,-1,0,-3
1461662009126393,-5,-4,-7,-4,4,0,-2,-4
1461662009138419,1,-1,2,5,2,0,-1,-2
1461662009138419,0,-3,-4,-5,-2,-2,1,-3
1461662009147405,0,-1,-4,-9,-3,0,-1,-3
1461662009147405,-1,1,0,-2,-3,-2,-1,-3
1461662009161436,-1,-4,-1,5,-1,-2,0,-3
1461662009161436,-2,0,-4,-6,-1,-1,-1,-2
1461662009168422,-2,1,-3,-2,0,1,0,-2
1461662009168422,0,0,0,3,1,1,-1,-3
1461662009184490,2,0,3,10,2,0,-1,0
1461662009184490,1,0,-1,-3,-2,-4,-1,1
1461662009186434,-1,-2,-2,-3,-2,-4,-3,-3
1461662009186434,-1,-2,0,-1,-3,-2,-2,-4
1461662009198501,-1,1,2,0,-1,0,-1,-1
1461662009198501,1,1,-9,-17,-5,-3,0,-1
1461662009207450,-3,-3,5,6,-2,-2,-2,-2
1461662009207450,0,0,3,18,6,2,0,-2
1461662009221471,-3,-4,0,7,3,-1,-2,-3
1461662009221471,-2,-4,0,3,-1,0,-1,-1
1461662009228521,1,0,-5,-13,-5,-2,-1,-1
1461662009228521,-2,-3,-4,-9,-4,-4,-2,-3
1461662009244624,3,2,1,1,-2,-1,0,-1
1461662009244624,2,0,-3,-3,-1,0,1,-2
1461662009246586,-1,-2,-2,-1,-1,0,0,-3
1461662009246586,0,-1,-1,-3,-3,0,-1,-1
1461662009267592,0,1,0,1,-1,1,-2,1
1461662009267592,0,-1,0,-4,-3,-1,-2,-1
1461662009268600,1,-3,-3,-1,-1,-2,0,-2
1461662009268600,-1,3,1,2,0,0,-2,-1
1461662009289666,-1,-2,-4,-6,-2,-3,-1,0
1461662009289666,-2,-1,2,3,2,1,1,-1
1461662009291623,-2,-1,-2,-1,0,0,0,0
1461662009291623,-3,-2,-1,-6,-3,-3,0,-2
1461662009304782,0,0,1,0,-2,-1,0,2
1461662009304782,0,-3,-2,-1,0,-2,-1,-2
1461662009306765,-2,0,0,-1,0,-1,-1,0
1461662009306765,-2,-2,-6,-12,-5,-1,-4,-3
1461662009318792,-1,1,5,16,3,1,0,-3
1461662009318792,-1,-1,-1,3,1,2,-1,0
1461662009327798,-1,0,-1,3,1,0,0,-1
1461662009327798,1,0,0,-3,-3,0,0,-2
1461662009341795,0,-1,-3,-5,-3,-1,0,-2
1461662009341795,0,-1,-2,-6,-2,0,-1,-1
1461662009348800,-2,-2,3,7,-1,-2,-1,-1
1461662009348800,-3,-2,-6,-11,-1,-3,0,0
1461662009363838,-1,-3,-2,-2,-3,-2,-1,-2
1461662009363838,1,-2,-4,-10,-2,0,2,0
1461662009370842,0,-2,-1,7,2,-2,-2,0
1461662009370842,-4,-1,4,14,4,-3,-2,-1
1461662009378823,0,0,0,-8,-2,-2,0,0
1461662009378823,-1,-1,-2,0,0,0,-1,-1
1461662009387855,-3,1,-2,-11,-6,-2,-2,-2
1461662009387855,-2,-1,-1,-6,-5,-3,-2,-1
1461662009401826,1,0,-7,-2,-2,-1,0,1
1461662009401826,1,1,2,0,-4,-2,-1,0
1461662009408831,0,-5,-2,-2,-2,1,1,-1
1461662009408831,-2,-4,-2,3,1,1,-1,-1
1461662009423842,0,0,1,-4,-1,-1,-1,0
1461662009423842,1,2,0,5,1,-1,0,-1
1461662009430846,-1,-3,-4,-3,-1,0,-1,-1
1461662009430846,-2,-1,-3,-4,-3,-1,0,-1
1461662009446858,2,5,1,-1,0,-1,-1,0
1461662009446858,-2,-1,6,3,-1,-3,-2,-1
1461662009447858,0,-6,-8,4,6,1,-2,-2
1461662009447858,-1,-3,-2,-7,-5,-1,-2,-2
1461662009462869,0,-1,-8,-17,-1,-1,0,0
1461662009462869,4,2,14,41,11,2,2,0
1461662009468874,-6,2,3,-8,-6,-2,-1,-2
1461662009468874,-1,-2,-7,-4,-3,-1,0,2
1461662009483899,3,6,11,10,4,-3,0,2
1461662009483899,-1,3,-6,-12,-4,-2,-1,-2
1461662009490904,-2,-3,-3,2,2,2,0,1
1461662009490904,-1,-1,-3,1,-1,-1,-4,-2
1461662009513921,0,-1,-3,-6,-4,-2,-1,-1
1461662009513921,-1,-2,-1,-6,-3,1,0,-1
1461662009514907,0,0,0,-1,-2,-1,-1,-2
1461662009514907,-2,-1,-1,1,0,-3,-1,-1
1461662009522911,-3,-8,1,0,-4,-1,-2,-1
1461662009522911,1,0,-3,-7,-1,0,1,0
1461662009528915,0,1,0,1,3,0,2,0
1461662009528915,-2,-3,-1,3,0,-2,-1,-4
1461662009543926,-1,1,-3,-1,-2,-3,-1,-1
1461662009543926,2,1,6,13,4,2,0,0
1461662009550930,-1,-2,-2,-9,-4,-1,-2,0
1461662009550930,-1,0,2,-5,-5,-2,-1,-2
1461662009566943,0,-1,-4,-8,4,1,1,1
1461662009566943,0,-4,-5,-5,-3,-1,-1,0
1461662009567943,-1,1,1,-3,-1,-1,-2,0
1461662009567943,0,-3,-2,4,2,-3,-2,-2
1461662009596964,-1,-2,-1,0,-2,0,-3,-1
1461662009596964,-2,1,1,-5,-2,-1,-2,-1
1461662009597963,0,-2,-3,-1,-2,-1,-2,-4
1461662009597963,-3,0,-2,-7,-2,1,2,0
1461662009602967,-4,-3,2,4,-1,0,1,-1
1461662009602967,-1,0,-4,-6,-3,-2,-3,0
1461662009610974,3,3,4,2,0,-2,-1,-1
1461662009610974,1,-1,0,-6,0,-1,-1,-2
1461662009627045,-2,-4,-3,1,0,0,-1,-2
1461662009627045,-1,2,4,6,1,0,-1,0
1461662009628001,-2,0,-2,3,2,-1,-1,0
1461662009628001,0,2,6,25,4,2,0,-2
1461662009651011,0,-11,-5,-3,-2,0,1,1
1461662009651011,0,-4,-1,-4,-6,-1,-1,-1
1461662009652004,-3,-2,-4,-7,-4,-1,-1,1
1461662009652004,-2,-2,-4,-9,-2,-1,-2,-3
1461662009664041,-1,1,-2,-2,-2,-1,0,-1
1461662009664041,1,-2,-4,-2,0,-2,1,-1
1461662009671024,-5,-2,1,0,-2,-3,-2,-4
1461662009671024,-4,-1,-3,-4,-2,-2,-1,0
1461662009687032,-1,1,0,-3,-2,-2,-1,-2
1461662009687032,0,-6,-6,-6,1,-1,-3,-1
1461662009687032,0,1,0,-8,-6,-4,-2,-2
1461662009687032,-1,-3,-3,-8,-6,-2,-2,-2
1461662009702041,-3,-10,-1,5,3,0,1,1
1461662009702041,-4,-5,2,-7,-2,1,1,1
1461662009708046,1,1,-3,19,7,3,-1,-2
1461662009708046,-2,-2,0,-4,-1,-1,0,-3
1461662009725053,3,5,-2,-1,-2,0,1,2
1461662009725053,-4,-5,-4,-8,-3,-2,-1,0
1461662009731061,1,6,-4,-10,-8,-4,-1,-1
1461662009731061,0,2,4,0,2,-1,0,0
1461662009747069,0,-2,2,13,3,0,-3,-2
1461662009747069,1,0,-2,-1,0,-3,0,-1
1461662009747069,3,-2,-4,-15,-5,-1,-1,-1
1461662009747069,-5,0,0,6,3,-1,-1,-1
1461662009762082,-4,3,-1,-1,-2,-2,-3,-2
1461662009762082,-4,-2,-1,-5,-3,-2,-1,-2
1461662009768084,-2,-10,-4,6,5,1,-1,1
1461662009768084,0,1,-1,-9,-5,-2,-2,-1
1461662009783105,1,0,7,15,6,1,-1,1
1461662009783105,-1,0,-2,-3,-3,-3,-1,0
1461662009791163,-4,1,0,-10,-4,-2,-2,-3
1461662009791163,-2,-4,-1,0,-3,-1,-1,-1
1461662009808144,2,1,-2,-9,-5,-1,-2,1
1461662009808144,-4,3,-5,7,1,-1,-2,-2
1461662009809116,-5,-15,2,1,0,0,-1,-1
1461662009809116,-3,2,-1,-12,-2,-1,-2,-2
1461662009822154,1,1,0,-1,-1,0,1,0
1461662009822154,-1,-5,-2,3,0,-1,0,-2
1461662009828158,2,1,-3,-7,-1,-1,-1,1
1461662009828158,0,-4,-4,2,-1,-2,-1,-2
1461662009846140,-2,-2,3,-2,1,0,0,0
1461662009846140,1,2,-4,-3,-3,-1,-1,0
1461662009851143,-2,3,5,22,8,0,1,-3
1461662009851143,-5,-7,-1,-5,-2,-2,-1,-4
1461662009866157,-1,5,1,0,-3,-3,-1,-1
1461662009866157,3,1,3,-5,0,1,-1,1
1461662009867154,-5,-1,-1,-6,-5,0,-1,-2
1461662009867154,-2,-1,-7,-14,-4,-2,-2,-3
1461662009882170,1,-1,3,10,-2,-2,-2,-1
1461662009882170,-3,-3,-6,-1,-1,0,-1,-1
1461662009888198,1,2,4,6,1,0,-1,-1
1461662009888198,-1,1,-1,1,1,-1,0,0
1461662009903209,-1,-1,-5,-7,-2,-1,0,-2
1461662009903209,0,-4,-2,-4,-3,0,1,-1
1461662009911192,-1,-2,-3,-7,-5,-2,-1,-1
1461662009911192,0,-3,-1,5,1,-1,-1,-2
1461662009926225,2,6,-1,-8,0,-4,-2,0
1461662009926225,2,2,5,7,2,1,0,1
1461662009927227,-6,-1,-3,-7,-2,-2,-1,-3
1461662009927227,-4,-5,-2,2,-3,0,0,0
1461662009942208,-2,-3,-7,-6,-2,-1,1,-2
1461662009942208,1,0,2,1,3,0,0,0
1461662009948227,-1,-1,-10,-13,-5,-3,-4,-2
1461662009948227,0,3,4,6,-1,0,-2,0
1461662009963234,-1,-4,-1,3,-1,0,-1,-2
1461662009963234,0,6,1,1,1,1,1,0
1461662009971267,0,0,-2,-5,-5,-3,0,-4
1461662009971267,-3,-3,-4,-5,-2,-2,-3,-2
1461662009986278,-2,-7,-5,-8,-1,0,0,-1
1461662009986278,-3,-5,4,12,1,1,-1,0
1461662009987239,3,1,-1,1,-1,1,0,-1
1461662009987239,2,-1,-1,2,1,-1,0,0
1461662010002249,-2,-2,0,-4,-1,0,-1,0
1461662010002249,0,-2,-3,-10,-6,-3,-1,1
1461662010008293,-2,2,3,3,1,1,-1,-2
1461662010008293,-1,0,2,4,4,-1,0,-1
1461662010023294,2,2,-6,-3,-2,-2,0,0
1461662010023294,-2,-2,-1,0,0,0,-1,-3
1461662010031300,-1,-2,-3,-2,-4,-4,-1,-1
1461662010031300,-1,-4,1,-19,-9,-4,-1,-3
1461662010046311,-1,0,1,26,11,3,1,-1
1461662010046311,0,2,-2,-7,-1,0,-1,0
1461662010047282,-2,-4,1,1,-2,-1,-1,-2
1461662010047282,0,-1,-2,-5,0,-1,-1,-1
1461662010062292,3,7,4,3,-8,-3,-2,-1
1461662010062292,-2,-3,2,13,5,0,1,-1
1461662010068356,-1,-1,-5,-9,-3,-2,-2,0
1461662010068356,-7,-1,-1,1,-3,-2,-3,-1
1461662010083367,0,-5,-1,4,4,0,0,0
1461662010083367,-6,-2,-7,-15,-5,-2,0,-1
1461662010091378,0,3,2,3,-1,-1,0,-1
1461662010091378,-1,-2,0,2,0,-2,-2,-1
1461662010114392,-1,-3,-4,-8,-1,0,1,0
1461662010114392,3,4,1,-2,-4,-3,-2,-1
1461662010115332,-7,-6,1,11,2,0,-1,-3
1461662010115332,0,-1,0,5,2,2,-1,0
1461662010122340,7,4,-4,-18,-4,-1,-2,-1
1461662010122340,1,1,7,11,0,4,17,2
1461662010128368,-8,-13,-8,-6,-7,0,-4,-4
1461662010128368,5,8,-2,8,4,-3,-4,4
1461662010143366,0,-2,3,-10,-10,-15,-20,-1
1461662010143366,2,5,-3,20,10,-2,-11,-1
1461662010151358,-8,-1,-3,-20,-5,-4,-1,-5
1461662010151358,0,-3,-2,6,-2,3,4,-4
1461662010166366,-2,-2,-5,-8,-6,5,9,2
1461662010166366,2,5,-5,-23,-8,-1,0,2
1461662010167366,-1,0,9,27,9,7,5,3
1461662010167366,-1,-1,-1,-8,-5,-3,-4,-3
1461662010182387,-2,2,6,-7,-5,0,3,0
1461662010182387,-5,-7,-15,-4,-4,-2,-3,-2
1461662010188439,7,4,7,9,13,4,1,1
1461662010188439,-2,-8,-3,-14,-7,-4,-5,-7
1461662010205406,2,-1,4,28,11,2,4,5
1461662010205406,0,1,4,-26,-14,-4,-3,-1
1461662010211452,-6,-6,-6,12,5,-3,1,-2
1461662010211452,-1,9,3,-1,-2,0,2,2
1461662010226440,-7,-37,-2,-3,1,9,24,-2
1461662010226440,8,9,-3,5,-2,3,-6,-1
1461662010227409,-6,4,-17,-37,-13,-14,-5,-5
1461662010227409,2,0,5,27,8,-10,-19,1
1461662010249428,-7,10,11,10,1,-6,-28,-7
1461662010249428,-1,-14,-8,-22,-4,-6,-7,-3
1461662010250434,1,-3,6,-3,0,6,-3,-5
1461662010250434,-2,-3,-8,-19,-9,-1,12,0
1461662010265437,5,3,-3,-10,-6,-4,16,6
1461662010265437,-3,0,12,2,5,11,-8,3
1461662010271470,5,4,-5,-14,-6,0,6,3
1461662010271470,6,-1,9,60,32,6,3,3
1461662010286480,-12,-17,-1,-18,-9,-5,1,-9
1461662010286480,-2,-1,-9,4,5,7,9,-5
1461662010293472,2,-12,-5,-8,-8,-1,0,8
1461662010293472,-7,-18,-7,-23,-11,-5,-9,0
1461662010303480,-3,20,14,31,15,7,-1,-6
1461662010303480,7,-3,12,-17,-11,1,6,5
1461662010308483,5,-4,-10,20,3,-17,-21,5
1461662010308483,-5,-24,-2,0,-3,-11,-25,-8
1461662010324518,-3,44,-16,-29,-11,-4,11,-9
1461662010324518,-10,-32,-5,17,3,4,-4,4
1461662010330522,-2,4,3,-23,-12,-6,-17,-4
1461662010330522,-9,28,7,-22,-5,10,42,-4
1461662010345531,15,0,4,14,7,6,-12,14
1461662010345531,18,4,26,-3,-10,-16,23,12
1461662010353498,-3,-16,-30,-15,1,-8,-42,-11
1461662010353498,4,22,7,35,-6,-19,-19,-15
1461662010370514,-13,-74,-50,-43,-6,1,-2,-8
1461662010370514,-31,11,29,-31,-12,3,2,-13
1461662010371512,17,-2,13,80,33,31,40,11
1461662010371512,8,7,6,-40,1,8,16,8
1461662010393555,1,-25,11,13,-8,-12,10,0
1461662010393555,18,-28,-18,67,24,-1,-42,6
1461662010393555,-8,-36,9,-33,-20,-13,17,-3
1461662010393555,-19,-117,-14,-5,1,19,22,7
1461662010405547,32,-23,7,-50,-14,-4,-6,11
1461662010405547,-27,-67,-17,-2,5,0,46,-14
1461662010413554,22,3,21,4,0,7,-6,-4
1461662010413554,-15,-27,-20,-45,-31,-14,-28,-2
1461662010429568,-12,8,-1,43,14,-22,-67,4
1461662010429568,-11,-3,-14,3,1,-24,-22,-18
1461662010429568,0,10,24,28,14,5,6,0
1461662010429568,19,50,28,29,8,15,36,8
1461662010444575,-25,24,-30,3,3,20,52,-2
1461662010444575,29,50,-26,-68,-17,8,-7,11
1461662010450579,-42,20,-2,55,20,14,37,-11
1461662010450579,12,88,2,-39,-10,-3,-69,1
1461662010465617,14,82,29,72,36,-3,-36,-14
1461662010465617,21,92,6,25,12,6,84,18
1461662010473595,6,59,-20,-122,-52,-25,-26,5
1461662010473595,-17,45,-8,56,36,-15,-33,-2
1461662010489595,-37,-17,-6,-4,-5,-11,-3,-5
1461662010489595,8,23,27,-52,-29,-3,3,-5
1461662010489595,14,7,3,30,12,37,74,1
1461662010489595,-27,28,-19,19,12,6,-56,-14
1461662010513612,-48,-43,-10,-26,-17,-24,-8,7
1461662010513612,16,-20,-25,-44,-17,-21,-40,-6
1461662010514625,-13,-75,18,41,7,-6,-16,-9
1461662010514625,38,-104,8,-38,-23,-14,20,-14
1461662010525678,28,-103,0,22,7,14,32,21
1461662010525678,-17,-87,26,74,22,14,-18,-5
1461662010533641,-47,39,-17,-4,5,8,-2,-6
1461662010533641,91,107,-1,-27,-5,22,37,5
1461662010548694,-70,127,19,-19,-12,6,26,5
1461662010548694,52,-80,-47,-23,-13,-16,-27,-2
1461662010549637,-10,-59,19,77,33,4,-6,-19
1461662010549637,-108,-14,-25,-1,8,-9,-42,0
1461662010572654,76,-108,-6,-18,-8,-23,-4,-18
1461662010572654,-28,-3,22,25,-5,6,54,28
1461662010573654,35,-26,-30,-122,-49,3,29,-3
1461662010573654,27,71,5,57,23,22,13,34
1461662010585721,54,127,11,-7,14,-12,-45,4
1461662010585721,-85,42,-18,-3,-4,-50,-73,-36
1461662010593731,7,-47,0,-29,-14,-27,-69,-20
1461662010593731,16,-117,-4,-49,-24,19,74,-11
1461662010616686,36,-128,1,-4,7,74,47,22
1461662010616686,-73,-113,-16,1,8,-24,-29,1
1461662010617686,-56,-92,-22,-53,-41,-46,-10,25
1461662010617686,26,-123,-19,3,0,15,-24,-25
1461662010624690,-22,-103,49,98,52,7,-1,-24
1461662010624690,66,-66,33,-19,-3,13,44,19
1461662010630713,-44,-33,-26,-17,-13,-13,-60,11
1461662010630713,38,-68,13,-42,-21,-23,11,-15
1461662010645723,0,-36,-37,53,21,16,2,-10
1461662010645723,90,-3,10,12,13,43,22,18
1461662010653722,-63,-12,2,-64,-36,-19,-8,14
1461662010653722,-43,-27,9,43,10,-25,-23,-21
1461662010668760,30,-10,-27,-9,7,-6,-29,-21
1461662010668760,13,-1,-13,-14,-8,-33,7,2
1461662010669723,6,-4,14,-33,0,33,86,24
1461662010669723,12,-16,-3,-101,-27,29,-17,-4
1461662010684734,42,-1,-15,8,4,-11,-29,11
1461662010684734,35,-2,12,60,21,-4,-10,12
1461662010690776,31,-106,2,23,19,11,-8,29
1461662010690776,-112,-107,2,28,-1,-16,-28,-36
1461662010705759,42,83,-36,-75,-31,-5,5,-27
1461662010705759,76,117,17,-43,-32,-9,-7,-6
1461662010713816,-10,-49,-12,78,52,19,18,-9
1461662010713816,-11,-87,44,44,26,32,50,15
1461662010728793,5,49,23,-55,-23,10,53,1
1461662010728793,-66,102,-23,18,-1,-1,-67,-20
1461662010729765,106,-25,0,-38,-29,-62,-80,-1
1461662010729765,20,-68,-25,34,45,30,80,37
1461662010744776,-63,45,-7,38,36,21,22,-37
1461662010744776,-4,105,8,-24,-6,-4,3,-27
1461662010750782,85,-30,7,-16,5,3,-22,32
1461662010750782,10,-43,7,-1,-28,-49,-49,-20
1461662010765790,57,54,27,-39,-20,-14,-19,4
1461662010765790,-60,75,-9,15,19,48,103,32
1461662010773797,-36,-24,-30,-2,-2,-14,-82,-25
1461662010773797,-28,-26,2,1,-12,-37,5,-2
1461662010788846,49,48,10,4,1,12,15,10
1461662010788846,-93,53,4,77,17,0,-12,-13
1461662010789806,45,-14,9,-44,-8,23,41,6
1461662010789806,108,-17,15,-2,0,18,7,1
1461662010805819,-119,33,-9,28,19,-4,-10,-15
1461662010805819,-62,41,17,-63,-37,-12,-58,-14
1461662010810829,-17,1,0,110,39,22,73,19
1461662010810829,2,2,-56,72,40,25,4,2
1461662010825861,-43,24,8,-35,-35,-49,23,-10
1461662010825861,29,37,4,-113,-29,3,-93,14
1461662010833853,29,9,-8,38,15,-52,-58,-20
1461662010833853,-52,13,21,33,-12,-53,30,8
1461662010848848,-8,23,14,-15,-13,40,18,0
1461662010848848,35,41,-22,-33,-2,-9,-21,-13
1461662010849850,-34,6,9,-5,-8,10,9,5
1461662010849850,78,20,-12,-87,-23,18,3,-9
1461662010864860,-54,27,-52,-13,16,8,-12,-16
1461662010864860,11,32,-22,20,6,3,28,-18
1461662010878909,39,7,20,98,43,24,-8,15
1461662010878909,12,20,-12,-51,-12,-7,21,-1
1461662010885914,-23,27,32,-7,-16,-3,-15,10
1461662010885914,0,26,20,38,10,4,19,12
1461662010893922,-14,9,2,-99,-41,3,73,-20
1461662010893922,-41,23,-23,8,39,35,-40,13
1461662010908916,53,23,-13,28,-4,-30,-57,55
1461662010908916,35,23,-18,-3,3,-32,-40,-16
1461662010909916,72,14,31,-37,-33,0,2,40
1461662010909916,-118,16,-32,-67,-36,-37,-41,-59
1461662010924902,-24,20,-4,-16,-6,-29,-21,-22
1461662010924902,127,22,22,3,-6,2,35,33
1461662010930923,-109,15,-16,-43,-16,22,5,-6
1461662010930923,-66,19,2,48,22,11,3,-14
1461662010945934,55,19,-2,-67,-29,-3,-4,-2
1461662010945934,1,22,-16,88,31,-4,19,5
1461662010953922,3,16,7,66,40,34,14,-12
1461662010953922,19,23,20,-81,-27,3,-2,7
1461662010968992,39,19,-33,-22,11,2,-6,-1
1461662010968992,-76,22,0,5,-12,-25,3,-34
1461662010969934,68,15,-9,-18,-12,24,-23,35
1461662010969934,2,26,12,-4,-14,-18,0,3
1461662010992982,-54,20,-30,-3,-29,-33,-16,34
1461662010992982,-80,20,-14,-22,0,4,59,-5
1461662010993953,22,14,-14,10,5,15,-31,-10
1461662010993953,-3,29,22,20,7,-24,-50,5
1461662011005989,123,21,33,-31,-19,-4,27,2
1461662011005989,-75,19,-20,-49,-27,-10,-18,-13
1461662011013995,-53,15,19,-12,-5,-25,-4,-25
1461662011013995,47,27,-21,-96,-26,28,20,7
1461662011029008,11,18,67,91,52,19,11,-20
1461662011029008,51,18,-22,35,15,16,5,30
1461662011035982,9,16,16,-115,-50,-25,13,-4
1461662011035982,-41,20,-62,86,84,26,6,-11
1461662011044988,-19,19,44,-1,16,5,-9,-7
1461662011044988,10,15,-18,-114,-19,46,79,40
1461662011051009,-29,15,-4,46,28,-13,-73,-33
1461662011051009,50,23,-9,-36,-56,-66,-17,13
1461662011066019,18,17,-14,-7,-13,6,-45,4
1461662011066019,-23,17,16,34,23,4,-21,-6
1461662011073047,2,15,-28,-41,-31,-31,30,-18
1461662011073047,58,23,36,36,14,44,0,13
1461662011089058,-12,18,-13,-3,-13,-33,-4,-7
1461662011089058,-5,16,15,-27,-13,8,11,1
1461662011090019,27,16,-14,-6,-6,-5,-11,-13
1461662011090019,-99,30,6,31,14,2,-3,-32
1461662011105036,10,17,-1,-83,-28,19,22,-17
1461662011105036,3,15,16,73,32,-4,-24,-6
1461662011111041,14,15,12,20,25,12,26,22
1461662011111041,17,27,37,24,16,10,11,4
1461662011126049,-23,19,-1,-28,-13,4,1,-5
1461662011126049,26,14,-1,-50,-19,-7,16,20
1461662011133057,5,14,12,18,-9,-11,-1,-12
1461662011133057,52,32,22,-7,6,30,40,20
1461662011149061,-64,18,-22,-14,-10,-2,-15,7
1461662011149061,-32,12,-13,-12,-9,-44,-8,27
1461662011150061,-3,14,4,-7,-3,-4,-7,-12
1461662011150061,12,23,3,-20,-12,20,8,5
1461662011165072,-22,17,0,29,16,4,-18,-9
1461662011165072,60,12,8,9,6,-11,-19,8
1461662011179141,5,14,-18,-28,-27,12,5,1
1461662011179141,-58,27,-20,-37,-25,-20,-27,-26
1461662011186145,-25,18,-2,-18,26,22,34,-6
1461662011186145,1,11,4,7,11,10,-11,-1
1461662011193151,-13,13,3,109,51,1,-3,-2
1461662011193151,32,21,5,10,5,1,12,2
1461662011209137,5,16,7,2,-24,-4,2,-5
1461662011209137,2,10,-34,-39,-15,-13,-17,-14
1461662011210104,-25,15,-2,-37,-2,1,17,2
1461662011210104,25,32,13,35,11,11,14,17
1461662011225117,14,17,-9,4,-12,-25,-11,10
1461662011225117,-23,10,-3,6,-8,-27,-40,-32
1461662011231139,-1,13,0,6,12,29,-7,-16
1461662011231139,-6,32,4,-2,-6,-33,-21,4
1461662011247199,12,18,-5,-9,-8,9,16,7
1461662011247199,-3,9,1,11,-12,0,12,-2
1461662011253153,11,12,-20,-36,-8,16,-4,2
1461662011253153,-5,26,-2,-7,1,12,12,-2
1461662011268164,-2,18,-5,37,9,2,9,-3
1461662011268164,5,10,4,-27,-6,5,-10,2
1461662011276170,-11,12,6,59,30,-7,9,3
1461662011276170,8,31,-8,-6,8,6,-8,-2
1461662011291173,-12,18,0,-6,7,-5,-1,-3
1461662011291173,15,16,14,1,-12,0,-5,-2
1461662011292168,-14,13,-7,-21,-14,-16,-7,-3
1461662011292168,6,127,-4,-5,-12,-2,11,1
1461662011306210,-19,-118,-1,3,0,4,-32,-8
1461662011306210,65,-128,9,1,16,25,47,16
1461662011313215,-32,31,4,-4,2,-28,-20,16
1461662011313215,-18,-2,-1,3,-2,28,-20,-9
1461662011328226,-13,15,-4,-7,-7,-10,-13,-2
1461662011328226,9,4,3,20,3,-22,-18,-4
1461662011336205,16,127,-2,-7,-1,41,31,2
1461662011336205,12,105,-8,-40,-32,-11,10,6
1461662011352234,-13,27,-5,23,5,-1,6,-1
1461662011352234,-20,-47,8,10,6,1,0,-7
1461662011352234,4,112,15,34,15,-20,-7,-5
1461662011352234,-10,67,2,-16,4,-10,-10,-4
1461662011376222,-1,-28,-8,8,0,6,11,-2
1461662011376222,-12,-42,-7,-9,-8,-10,-14,-1
1461662011377258,-13,81,-7,-10,-2,-3,-1,-7
1461662011377258,4,23,5,21,-1,0,-4,-3
1461662011388248,6,-39,-19,-29,-17,-22,-3,4
1461662011388248,2,-14,3,1,-1,5,-11,-5
1461662011396253,-28,54,-5,-12,-12,-15,-10,-8
1461662011396253,3,-8,2,7,1,12,-5,-4
1461662011412250,-2,-18,8,-5,-1,-41,10,10
1461662011412250,-10,-10,6,9,13,66,-3,-19
1461662011413251,-9,24,-9,-10,-8,13,24,-9
1461662011413251,3,-3,-4,-3,-4,-29,-7,7
1461662011427257,12,-9,4,6,3,-20,-5,5
1461662011427257,-13,-14,-3,2,3,-2,-1,-12
1461662011434262,3,13,1,-16,-10,11,9,-1
1461662011434262,2,8,7,-7,-10,-17,-11,0
1461662011448273,4,-7,-21,-28,-12,10,2,13
1461662011448273,-6,-22,50,50,34,-2,2,-2
1461662011456278,-5,15,-8,-9,2,-2,-3,-11
1461662011456278,-5,7,8,16,-1,-15,-19,-2
1461662011471289,1,-12,4,-22,-15,5,1,5
1461662011471289,-5,-9,-36,-26,-11,0,-7,-10
1461662011472289,-6,88,23,8,1,-9,-3,-7
1461662011472289,6,110,-12,3,-4,-15,2,13
1461662011487301,-8,82,-61,-10,-1,-3,-9,2
1461662011487301,-5,108,6,-3,3,34,18,2
1461662011493307,-6,63,9,5,3,-10,-19,-14
1461662011493307,9,17,0,-3,-4,3,28,18
1461662011508314,15,16,31,15,13,29,7,10
1461662011508314,-12,-7,-6,-2,1,5,3,-2
1461662011516324,-5,-34,-12,-10,-9,-13,-10,-13
1461662011516324,6,-21,3,4,0,-3,-5,6
1461662011531395,8,0,10,8,1,-1,8,8
1461662011531395,-10,-11,-2,-10,-5,-9,-5,-10
1461662011532333,0,-16,-5,-3,1,-12,-10,-9
1461662011532333,2,-13,-3,-1,-1,-12,0,4
1461662011547347,4,-2,20,18,4,6,5,3
1461662011547347,-2,-3,-22,-16,-1,-6,-5,-5
1461662011561372,-3,33,13,-10,-10,-9,-6,-9
1461662011561372,1,-20,-7,20,17,0,6,6
1461662011568421,-7,-43,-5,8,0,10,1,1
1461662011568421,-1,-11,11,5,4,-10,-5,-3
1461662011576429,1,-42,-2,-5,-3,-5,-2,-5
1461662011576429,-1,-23,2,-8,-4,10,4,3
1461662011591394,3,-28,6,-2,1,-1,-1,2
1461662011591394,-9,-38,-6,-7,-6,-14,-5,-6
1461662011592393,1,-30,-13,-1,-2,-4,-2,-5
1461662011592393,5,-5,2,-6,-2,4,4,6
1461662011606403,1,-28,-4,1,3,4,0,1
1461662011606403,-10,-20,-3,-4,-3,15,8,-2
1461662011613401,0,-8,-7,1,0,-8,-8,-4
1461662011613401,1,17,-9,-1,-6,-5,3,1
1461662011628456,4,15,11,-8,0,5,-1,3
1461662011628456,-3,-10,6,8,2,-8,-4,-4
1461662011636422,-1,-17,-14,0,-1,5,1,-3
1461662011636422,8,-21,8,-8,-3,-8,-2,3
1461662011651430,-15,-41,-19,6,9,4,1,-3
1461662011651430,1,-3,13,0,-1,-1,-3,-2
1461662011652416,3,4,-5,1,-2,-1,0,1
1461662011652416,-4,-22,-1,-18,-14,-9,-7,-2
1461662011666429,6,16,14,3,0,-5,-1,-1
1461662011666429,0,-11,9,10,8,-7,-8,1
1461662011673490,-2,-13,-4,4,4,1,4,-1
1461662011673490,0,-20,-10,-1,-3,0,-2,-1
1461662011688456,2,-10,6,-8,-8,-5,0,1
1461662011688456,-2,-14,-13,-7,-5,10,10,-2
1461662011696509,-2,-1,1,-6,-3,-4,-5,-3
1461662011696509,-1,-13,-7,5,2,3,-6,-2
1461662011711471,0,-8,-7,-2,-2,-5,-1,-2
1461662011711471,1,4,0,3,3,1,-4,-3
1461662011712459,-4,-14,-7,-2,-1,-1,0,-3
1461662011712459,-3,-3,-6,3,0,-1,-2,-1
1461662011726485,1,1,15,-1,-4,3,-1,0
1461662011726485,-4,-14,-28,-4,0,-1,-1,-1
1461662011733476,3,5,16,-2,-5,4,-2,-2
1461662011733476,-9,-16,8,1,0,-5,-3,-3
1461662011748543,7,8,8,17,9,4,3,3
1461662011748543,3,-2,-11,-2,-4,-5,-4,0
1461662011756517,-12,-16,-2,-10,-2,3,1,-4
1461662011756517,-2,1,-1,-2,-1,-8,-2,1
1461662011771563,-3,-17,-6,-10,-6,1,-1,-4
1461662011771563,-2,-8,-5,-3,-2,2,-3,-2
1461662011772509,1,3,-12,1,0,-5,-2,0
1461662011772509,3,4,2,4,1,0,-4,1
1461662011787514,-3,-7,-6,-6,1,-2,1,1
1461662011787514,5,14,10,0,-3,15,3,1
1461662011793545,-3,-8,-7,-3,-1,-3,1,-1
1461662011793545,-2,1,-4,-2,0,-5,-2,-1
1461662011808557,0,6,1,-1,1,-4,-1,1
1461662011808557,-2,-1,-1,-5,-9,-9,-4,-2
1461662011816541,1,11,8,5,4,-1,-1,1
1461662011816541,0,-1,2,-4,0,-1,0,1
1461662011831558,1,0,-5,10,1,-2,-1,-1
1461662011831558,-4,2,19,1,3,-1,0,-2
1461662011832544,0,0,-9,-7,-2,4,0,0
1461662011832544,4,-1,-3,-16,-6,-4,0,-2
1461662011847570,2,4,-5,33,13,2,3,2
1461662011847570,-8,-13,-7,0,3,0,-4,-5
1461662011853598,-6,3,8,4,-1,1,-2,-2
1461662011853598,2,13,4,-4,-2,-3,0,2
1461662011868605,-2,-6,-5,-16,-10,-18,-7,-2
1461662011868605,-4,4,-2,0,1,4,-1,-3
1461662011875614,3,4,-1,-1,0,10,7,0
1461662011875614,-4,-4,-5,8,-1,-4,-3,1
1461662011891624,1,6,3,-7,1,12,4,1
1461662011891624,-2,-10,-12,-1,-1,-6,2,0
1461662011892600,-1,5,-1,-3,-3,5,-1,-2
1461662011892600,0,2,-4,5,1,3,1,-1
1461662011907596,-2,3,3,-1,-3,-6,-2,1
1461662011907596,0,7,-2,-5,0,-6,-5,-2
1461662011913611,-5,-7,-4,-12,-6,-4,-1,-2
1461662011913611,-3,-6,11,21,12,2,2,0
1461662011928673,2,7,0,-8,-1,2,0,0
1461662011928673,-2,4,0,-2,-8,-4,0,-3
1461662011935646,-8,-12,-12,-1,-1,-2,-5,-4
1461662011935646,1,-9,-17,-2,0,-6,-2,-1
1461662011951657,-1,1,15,-9,-6,2,0,-1
1461662011951657,1,1,-12,-5,-1,0,2,-2
1461662011952630,2,1,1,3,-2,-13,-6,-2
1461662011952630,-2,-3,-5,-1,-1,4,-1,-1
1461662011967648,-2,1,-2,-3,0,3,1,-1
1461662011967648,-6,-8,-2,0,0,8,-3,-2
1461662011973660,1,3,3,6,2,-12,-1,1
1461662011973660,0,-3,-2,0,-1,5,0,1
1461662011988687,1,0,-3,0,-1,3,0,1
1461662011988687,0,6,5,-2,1,0,3,0
1461662012004695,-7,-7,0,-1,0,3,-1,-2
1461662012004695,0,-7,-5,-2,-2,-6,-1,0
1461662012011675,7,21,0,-3,-2,-1,-2,0
1461662012011675,-9,-18,2,-3,-1,-5,-4,-4
1461662012012672,4,10,6,9,0,-1,-1,-2
1461662012012672,-1,-9,-17,-4,1,1,1,0
1461662012027711,-6,-10,-6,2,3,2,0,-1
1461662012027711,1,3,2,-13,-7,-7,-3,-2
1461662012033702,4,7,2,17,6,1,-1,-2
1461662012033702,2,6,10,-2,-1,-1,-1,-1
1461662012048699,-3,-12,-10,-2,-3,-5,-3,-3
1461662012048699,0,6,-1,-6,-2,5,2,0
1461662012055701,-1,-3,-1,-8,-6,-7,-3,-1
1461662012055701,4,10,3,3,-3,12,1,-2
1461662012071772,-1,0,-2,-1,0,0,-2,-2
1461662012071772,-4,-8,0,5,0,1,-1,-2
1461662012072714,-3,-8,-16,-7,-4,-11,-6,-2
1461662012072714,-1,0,11,0,-1,-5,-3,0
1461662012087727,3,-2,1,-2,0,11,6,1
1461662012087727,-1,3,2,2,-2,2,-1,-2
1461662012093785,1,-1,-4,0,-3,2,1,-1
1461662012093785,-3,-14,-2,-12,3,-9,0,1
1461662012108797,-6,0,-13,1,-3,-4,-4,-3
1461662012108797,-3,5,3,-13,-3,-7,-3,0
1461662012115803,-2,-2,-1,22,5,5,0,-1
1461662012115803,3,7,6,-4,-3,-2,-1,-1
1461662012131784,0,-4,10,4,4,-1,1,-1
1461662012131784,-3,-12,-21,-2,-1,-2,-1,-2
1461662012132757,0,8,8,-12,-5,0,-1,0
1461662012132757,-1,0,-4,-4,-6,-4,-2,0
1461662012147768,1,-5,-4,-4,-1,-2,1,1
1461662012147768,-3,-2,-3,1,-2,-6,0,-3
1461662012153784,0,1,2,-5,-1,14,2,-1
1461662012153784,1,-2,-2,4,-3,-7,-2,0
1461662012168796,1,2,0,-3,0,0,-1,-1
1461662012168796,1,3,-6,4,-1,3,-2,-1
1461662012175845,-3,-6,7,-7,-3,-4,-1,-4
1461662012175845,-2,-1,-2,2,1,1,-1,-2
1461662012190858,0,2,-1,-3,-1,-5,-4,0
1461662012190858,-1,-10,0,4,-1,-4,-1,-3
1461662012207825,0,2,-5,-6,-2,-1,0,0
1461662012207825,-1,-8,-9,-7,-3,0,0,-1
1461662012208812,0,4,3,2,0,-3,-2,-1
1461662012208812,-1,2,3,-1,-4,-3,-2,-3
1461662012213873,1,-3,-7,0,4,-3,-1,0
1461662012213873,2,7,2,17,6,2,4,2
1461662012228839,-3,-11,1,1,2,5,2,1
1461662012228839,-2,18,8,-1,-1,-1,-3,-2
1461662012235888,-4,-10,-8,-9,-6,-4,-2,-2
1461662012235888,-2,4,4,-7,-5,-2,0,-2
1461662012250869,-3,-9,-10,-2,-1,-4,0,0
1461662012250869,4,7,6,0,-1,-2,-2,1
1461662012258851,-2,-4,0,0,-1,-1,-2,-2
1461662012258851,-1,0,-4,3,1,3,0,0
1461662012267857,0,4,5,0,-3,-5,-1,-1
1461662012267857,-4,-6,-8,-3,-1,5,-3,-1
1461662012273873,1,5,1,1,-1,-6,-1,-2
1461662012273873,2,-2,5,2,0,-4,-2,-1
1461662012288885,-1,-2,-6,-2,-2,7,1,-2
1461662012288885,0,0,0,-1,1,-4,-2,-1
1461662012295891,-3,-9,1,1,0,2,-1,-1
1461662012295891,-4,-5,-17,-7,-2,-1,0,0
1461662012312943,-2,-3,9,-8,-5,-6,-1,-2
1461662012312943,3,12,14,15,7,-1,-1,-2
1461662012318952,-2,1,-8,7,3,0,1,-2
1461662012318952,-1,-5,2,-3,-2,0,-1,0
1461662012327927,-2,1,-1,4,3,-1,0,2
1461662012327927,1,-3,-1,-13,-7,-2,0,-2
1461662012333956,0,4,6,-4,-5,-1,-2,-1
1461662012333956,-5,-3,-3,2,-4,-3,-2,-3
1461662012348967,-2,-1,-5,-1,-3,1,0,-1
1461662012348967,1,-3,-7,-1,-1,-3,-3,1
1461662012355923,0,3,1,-4,-2,-4,0,0
1461662012355923,1,3,-2,-3,-1,3,-1,1
1461662012370936,-1,-2,1,1,-2,-1,0,-1
1461662012370936,-1,-2,-8,-3,-3,-4,-2,-3
1461662012378990,-2,-3,-4,-4,-3,0,-4,-2
1461662012378990,-1,3,6,1,-2,2,0,0
1461662012394000,0,-1,-4,-1,-2,2,0,-3
1461662012394000,-3,-4,-2,1,1,5,0,-1
1461662012394942,-2,-18,-2,-2,1,0,3,1
1461662012394942,-1,8,2,-4,-4,-3,-4,-2
1461662012408963,0,4,8,1,0,-6,-2,-1
1461662012408963,-4,-6,-10,16,7,-2,0,0
1461662012415968,0,4,6,-1,-4,1,0,-2
1461662012415968,0,-7,-15,3,1,-2,-1,0
1461662012430978,-3,-2,-3,-5,-2,-1,-1,-2
1461662012430978,-10,-7,-3,-9,-2,0,-1,-4
1461662012438971,2,1,-3,4,-2,0,0,1
1461662012438971,2,5,7,-1,-1,-3,-1,0
1461662012453984,-2,-1,-5,-3,2,1,0,-2
1461662012453984,-1,-6,-4,-3,-2,-3,-2,-3
1461662012454985,-1,4,-3,-4,-1,-3,-1,-2
1461662012454985,0,-2,1,-5,-2,1,0,-1
1461662012485045,1,2,-2,-3,-2,3,1,2
1461662012485045,1,-5,-1,-3,-4,-4,-3,-1
1461662012486019,0,1,0,-7,-5,-1,-1,-1
1461662012486019,1,0,-7,4,6,0,1,0
1461662012491048,-1,-4,5,12,-3,-1,-1,-2
1461662012491048,-4,-6,-6,1,0,0,1,-2
1461662012507077,0,-1,0,-3,-1,0,-1,-1
1461662012507077,1,2,5,3,0,0,0,0
1461662012514084,-1,-6,-12,-13,-4,-1,-1,-1
1461662012514084,-1,0,6,-10,-4,-1,-2,-1
1461662012515028,-5,-3,-2,3,3,1,-1,-1
1461662012515028,2,-1,2,-5,-4,-1,0,1
1461662012529052,-1,8,5,1,2,-2,-1,-1
1461662012529052,-5,-5,-1,0,-1,-1,1,-2
1461662012536044,-1,-3,-7,-5,0,-1,0,0
1461662012536044,-4,4,1,-1,0,-1,-2,0
1461662012551081,-1,-5,-4,-1,-2,-2,-2,0
1461662012551081,-1,3,-1,1,-1,-1,0,-1
1461662012559087,-1,2,-3,-2,1,5,-1,0
1461662012559087,-4,-8,-6,0,-2,-5,1,-1
1461662012574069,-1,-1,-2,-4,-2,0,-1,-1
1461662012574069,-2,-2,-3,-1,-2,-3,-3,-2
1461662012575071,-1,-4,-1,3,4,-2,-1,0
1461662012575071,3,5,-8,-23,-8,-1,-1,0
1461662012588109,-4,-14,10,35,9,5,-2,-2
1461662012588109,-1,-4,0,-1,-3,0,-1,0
1461662012596112,1,2,-4,-5,0,-1,0,-1
1461662012596112,-4,-3,9,16,5,0,-2,-3
1461662012611110,4,6,-1,-17,-5,-4,-1,-1
1461662012611110,-2,-2,1,6,-4,-1,-3,-1
1461662012618115,-3,-4,-1,5,1,-1,-1,-1
1461662012618115,-1,2,-3,-7,-4,-1,1,2
1461662012634125,0,2,4,-4,-1,-2,1,-1
1461662012634125,0,-1,-3,-1,1,0,-1,-2
1461662012635112,-5,1,2,-6,-4,-4,-2,-1
1461662012635112,0,-3,6,2,1,1,-1,-2
1461662012648133,-1,-1,-9,-2,0,0,0,1
1461662012648133,0,1,1,0,4,1,0,-2
1461662012656128,1,-4,-4,-4,-6,-1,-2,-1
1461662012656128,0,-2,3,5,2,1,0,-1
1461662012671137,0,1,-3,3,0,-2,0,0
1461662012671137,-3,-3,0,-11,-5,-4,-3,-2
1461662012678201,0,3,5,2,-1,-1,0,-1
1461662012678201,-2,-4,-11,-17,-3,0,-1,0
1461662012694216,-1,-1,8,20,8,2,1,-1
1461662012694216,-1,1,-7,-7,-2,-2,-1,-1
1461662012695173,-1,2,5,17,5,1,-1,1
1461662012695173,0,0,0,4,-4,-1,-1,-1
1461662012708181,-1,3,-4,-12,-8,-3,-3,0
1461662012708181,-2,-7,-6,-6,-2,0,-2,-1
1461662012716189,3,3,0,-5,-3,-1,-1,-2
1461662012716189,3,3,2,-7,-2,-2,-1,-2
1461662012733181,-1,-4,-6,-6,0,1,-1,1
1461662012733181,0,4,3,5,-1,1,1,-1
1461662012738254,2,2,-7,-8,-4,-2,-1,-1
1461662012738254,0,-5,-1,4,3,0,0,1
1461662012754225,1,4,0,-8,-1,1,0,-1
1461662012754225,-2,0,0,3,-1,-2,-3,-2
1461662012755197,1,0,-3,-6,-4,-3,-2,-1
1461662012755197,0,1,4,10,4,0,2,1
1461662012777213,1,0,0,-5,-2,-2,-3,0
1461662012777213,-3,-1,-1,-5,-3,-1,-2,-2
1461662012777213,-3,-3,-6,-16,-3,-2,-1,-2
1461662012777213,-1,-3,4,23,6,1,0,-2
1461662012791250,0,-4,-4,-9,-4,0,-1,-1
1461662012791250,-1,4,-1,-10,-8,-4,-3,-4
1461662012798256,-1,-6,3,17,8,2,1,2
1461662012798256,0,7,-2,-11,-3,-3,0,1
1461662012815241,-2,-4,2,5,-1,-1,2,0
1461662012815241,0,7,-7,-5,1,0,-1,1
1461662012816242,-7,-10,1,-3,0,-2,-1,-3
1461662012816242,0,-3,-1,-1,0,-2,-1,-2
1461662012828264,-4,-2,-2,5,1,-2,-1,0
1461662012828264,0,1,1,-4,-3,-1,-2,-2
1461662012836285,5,0,-4,-2,-4,-4,-1,-1
1461662012836285,0,-4,-5,-3,-2,0,-1,-1
1461662012851276,0,1,3,-1,-2,1,-2,-2
1461662012851276,-1,-5,0,2,0,-2,-3,-1
1461662012866278,-1,3,0,7,1,-1,0,0
1461662012866278,2,3,3,1,1,3,1,-1
1461662012874309,-2,1,-5,-6,-1,-2,-2,-2
1461662012874309,-6,-12,2,1,1,-2,-1,-2
1461662012875282,-1,2,-3,-8,-3,0,-2,-1
1461662012875282,-1,1,6,8,-4,-2,-1,0
1461662012888299,-2,-3,1,8,4,0,0,-1
1461662012888299,-3,-5,-8,3,6,2,-1,-2
1461662012896325,2,2,1,-3,-3,-4,0,-1
1461662012896325,-3,-1,-7,-13,-3,-2,-1,-1
1461662012911322,0,-6,-1,1,-1,0,-1,0
1461662012911322,-2,2,5,0,-2,-1,-1,-2
1461662012918375,-1,-2,-4,-2,0,0,1,0
1461662012918375,-3,-2,-4,-3,-2,0,-2,-1
1461662012935326,1,2,-3,-10,-3,-3,-1,-2
1461662012935326,-1,-9,-4,1,-2,1,-1,-1
1461662012935326,2,7,0,-1,-1,2,-1,-2
1461662012935326,-2,-1,-3,-3,-1,-3,1,2
1461662012948391,-1,-2,-1,-6,-2,-1,1,1
1461662012948391,-1,-1,-3,0,-3,-4,-2,-2
1461662012956353,-2,-4,0,-13,-1,-1,-4,0
1461662012956353,1,-4,0,17,4,1,-3,-1
1461662012972359,-4,2,4,0,-4,-5,1,-3
1461662012972359,1,-5,-4,3,5,1,5,4
1461662012978384,1,4,0,-2,0,0,0,1
1461662012978384,2,14,4,-9,-9,-3,3,-3
1461662012994381,2,-10,0,10,10,4,-4,3
1461662012994381,-5,-1,-1,-31,-18,-5,-2,-4
1461662012995382,-2,-9,-5,20,9,3,1,0
1461662012995382,2,-3,-5,14,7,0,2,1
1461662013008391,4,7,-12,-4,-6,3,28,7
1461662013008391,0,0,11,10,4,4,-23,-5
1461662013016383,-6,-3,-7,-13,-11,-8,-20,-9
1461662013016383,2,-12,2,-21,-10,-12,-14,-1
1461662013031430,3,3,-2,-11,-6,-10,-16,0
1461662013031430,-7,-7,4,-23,-14,-2,34,1
1461662013038436,3,5,-20,8,10,0,2,7
1461662013038436,-2,-3,10,-27,-22,-11,-16,-5
1461662013054416,0,7,10,34,22,2,-17,-7
1461662013054416,2,-4,5,14,6,2,4,-4
1461662013055416,2,16,20,13,5,6,19,0
1461662013055416,-10,-24,-34,15,8,13,10,-1
1461662013070427,0,2,15,-7,-11,-8,0,-5
1461662013070427,1,13,-13,-26,-10,6,34,8
1461662013076431,-7,-20,-10,21,15,3,-26,-3
1461662013076431,5,38,21,32,4,-13,-15,-6
1461662013091436,-14,-11,-10,-10,-13,-10,-26,-12
1461662013091436,1,-1,10,30,12,7,26,0
1461662013098441,5,-1,27,-4,-14,-3,31,13
1461662013098441,-1,-10,-19,-15,8,5,-2,1
1461662013121458,10,17,-6,-52,-30,-10,-17,7
1461662013121458,3,0,2,54,34,7,-19,1
1461662013122456,-6,25,12,-37,-17,-3,10,3
1461662013122456,-9,-43,-10,-14,-17,-21,-41,-12
1461662013130477,-10,-15,9,37,8,3,7,-10
1461662013130477,10,25,-10,-85,-32,-5,13,8
1461662013135501,7,-16,1,69,34,12,-4,0
1461662013135501,-3,5,-6,-65,0,9,43,8
1461662013151500,-7,7,19,-27,-16,5,12,-3
1461662013151500,-6,8,29,81,36,4,-46,-10
1461662013158512,4,1,-25,-1,-19,-24,-36,-14
1461662013158512,9,-10,-4,-20,-4,-3,13,8
1461662013173522,-17,-31,-21,18,8,12,29,12
1461662013173522,-18,1,2,-76,-36,-25,-11,-12
1461662013181525,-13,-32,12,-7,-22,-14,-58,-21
1461662013181525,12,-56,-8,78,29,4,-34,-10
1461662013190535,5,-41,-17,-51,-13,-8,6,4
1461662013190535,6,23,-25,-20,3,18,61,15
1461662013196536,7,-42,-12,-89,-21,21,37,18
1461662013196536,-36,2,40,23,-9,-27,-78,-21
1461662013211543,17,21,6,65,24,-23,-41,-14
1461662013211543,-28,-37,-4,8,-6,-10,14,0
1461662013218606,23,52,-7,-39,-8,9,-18,-3
1461662013218606,5,5,-22,-57,-22,18,124,21
1461662013235558,-11,13,-6,-81,-12,15,-65,11
1461662013235558,4,-14,14,127,54,-25,-61,-35
1461662013241580,3,35,-23,-53,-22,-29,25,7
1461662013241580,22,49,-3,-64,-8,15,2,4
1461662013249586,-12,78,4,43,13,9,4,-11
1461662013249586,31,-4,-13,-23,16,30,71,29
1461662013255588,-44,5,23,48,7,-1,-71,-23
1461662013255588,-28,12,12,-11,-22,-18,-5,-9
1461662013271585,-9,-65,-7,5,6,9,43,0
1461662013271585,11,-3,17,-18,-3,37,-10,22
1461662013286623,2,34,-26,25,11,-26,-20,-11
1461662013286623,15,0,22,31,-2,-29,15,14
1461662013293617,-1,-15,-8,-32,-18,-1,-21,1
1461662013293617,-8,0,-13,-29,-23,-34,-67,-35
1461662013300624,17,29,9,-31,0,16,78,17
1461662013300624,-2,27,-6,16,11,16,-39,-5
1461662013316615,8,-96,-11,-15,-6,-13,22,4
1461662013316615,-8,-128,27,-67,-21,-10,-12,-2
1461662013317619,-6,-89,-4,67,39,26,29,0
1461662013317619,2,104,3,-49,-26,9,45,10
1461662013330696,31,127,-42,-30,11,2,-24,-2
1461662013330696,-40,127,-8,-42,-28,-14,-5,-1
1461662013338702,-5,1,102,97,22,24,16,-12
1461662013338702,41,-128,-17,-45,6,-11,-43,7
1461662013353666,-2,-99,11,-81,-66,-10,70,35
1461662013353666,12,81,-15,54,65,25,-91,-21
1461662013369678,-1,116,-5,-112,-2,-51,-63,-23
1461662013369678,11,127,17,-20,1,-2,-7,-5
1461662013376728,-3,35,0,-20,-7,26,70,9
1461662013376728,-6,-62,-11,-41,-29,-2,29,12
1461662013377685,-30,-121,-20,1,1,21,8,6
1461662013377685,12,-128,8,22,11,-4,2,-6
1461662013390739,3,-116,-61,10,-11,-23,-68,0
1461662013390739,-12,-124,-24,-14,-12,8,9,-19
1461662013398698,35,-112,-2,85,41,45,99,33
1461662013398698,-31,-108,13,45,4,-29,-69,-26
1461662013413722,15,-48,-19,35,-6,-49,-35,-6
1461662013413722,-6,-68,-72,-95,-51,-4,-21,14
1461662013420726,0,-56,50,65,59,22,38,-18
1461662013420726,-36,-27,-66,-111,-30,38,46,6
1461662013436738,-20,-17,55,116,77,18,-28,0
1461662013436738,47,-31,30,118,54,-19,-21,7
1461662013437718,-34,-17,-34,-128,-68,6,-43,-27
1461662013437718,-1,-14,43,127,48,6,32,14
1461662013450726,27,-5,3,-3,9,-4,45,24
1461662013450726,21,-15,-19,-55,-32,6,31,29
1461662013458728,-4,1,8,5,4,-17,-36,-36
1461662013458728,2,-8,-26,-43,-10,24,-57,-21
1461662013473752,-89,-3,-23,-33,-35,-42,-69,-41
1461662013473752,17,-104,28,15,3,-45,54,24
1461662013480756,46,28,-34,-83,-40,16,4,17
1461662013480756,-20,90,-29,-42,-4,3,36,-15
1461662013496767,37,83,32,-58,-3,30,40,20
1461662013496767,-60,-53,-7,2,-3,12,-33,-6
1461662013497768,3,37,13,42,10,-33,-42,-22
1461662013497768,-11,60,-25,-35,-25,-4,15,-1
1461662013510805,7,108,27,69,49,55,29,-5
1461662013510805,69,-48,-22,-45,-37,-41,-37,6
1461662013518788,-109,12,-20,-59,-37,-41,-40,-26
1461662013518788,39,69,15,2,15,36,109,14
1461662013541826,71,91,14,63,33,36,-45,20
1461662013541826,60,-39,23,0,-15,-43,-46,-18
1461662013542804,13,16,28,4,7,-5,-7,32
1461662013542804,-72,73,25,6,-6,-32,-36,7
1461662013556810,-66,30,-33,-55,-16,-18,27,-26
1461662013556810,29,-32,16,-7,-2,36,17,-23
1461662013557813,-25,37,-11,6,17,48,13,-11
1461662013557813,76,50,11,-71,-68,-78,-75,-8
1461662013570825,-91,15,0,5,36,-7,7,34
1461662013570825,45,-13,20,5,26,14,11,13
1461662013578833,31,46,-14,-55,-45,1,45,-3
1461662013578833,-21,41,8,106,90,67,18,3
1461662013593837,19,7,6,-64,-34,-35,2,1
1461662013593837,-39,0,2,-61,0,27,56,13
1461662013600841,24,40,-26,24,-3,3,-35,-10
1461662013600841,17,32,-2,11,-14,-25,-9,-10
1461662013616843,-23,24,23,6,-4,-6,-43,-2
1461662013616843,-92,0,-16,-9,-17,-13,52,18
1461662013617843,104,30,14,34,28,30,66,44
1461662013617843,-83,33,-20,15,-9,-15,-97,-50
1461662013630889,18,8,-19,4,-11,-49,-26,-4
1461662013630889,65,5,9,-49,-18,-6,-34,-1
1461662013638855,-83,15,-4,49,7,-10,7,-37
1461662013638855,66,30,-27,-21,8,20,34,2
1461662013653896,10,9,20,-30,-6,29,23,6
1461662013653896,-22,8,-21,64,7,12,-11,-22
1461662013677946,35,31,17,51,34,-5,-3,2
1461662013677946,-2,25,-19,-92,-27,6,4,9
1461662013679890,4,4,3,80,46,13,-1,-1
1461662013679890,-9,11,-23,-59,-15,-21,14,-9
1461662013680887,69,29,25,-8,-8,11,-42,13
1461662013680887,-115,23,21,6,21,27,-40,-13
1461662013698927,35,9,-18,-62,-47,-62,2,18
1461662013698927,12,13,15,23,17,0,55,15
1461662013699909,7,22,-5,-6,9,10,-47,-23
1461662013699909,72,22,9,-5,-19,-46,32,36
1461662013713925,-54,-4,-14,-18,-19,9,-16,-34
1461662013713925,-33,13,-21,32,25,25,-20,-19
1461662013720931,94,21,17,-109,-55,8,45,13
1461662013720931,-46,20,5,116,61,11,2,18
1461662013736942,-82,1,-2,-102,-20,-10,-4,-5
1461662013736942,-32,14,28,7,-14,-12,-47,-28
1461662013737943,20,26,-21,-20,39,10,19,4
1461662013737943,83,21,5,-56,-26,0,15,5
1461662013750952,25,10,-5,62,3,-2,-2,6
1461662013750952,-47,13,-7,-31,-22,6,28,5
1461662013758953,-12,29,-28,-18,-19,2,-33,-1
1461662013758953,41,21,25,22,6,14,75,13
1461662013773981,-69,9,-20,-37,-20,-29,-54,0
1461662013773981,7,15,-12,-7,-1,-26,-72,-29
1461662013780985,-52,25,-6,22,9,2,60,42
1461662013780985,8,20,1,-1,-3,-17,-27,-4
1461662013796976,67,9,7,-15,-18,23,47,4
1461662013796976,42,16,14,15,21,24,17,5
1461662013797977,-30,23,-23,-6,6,-21,-43,-21
1461662013797977,-34,19,-11,-44,-32,-17,-28,-21
1461662013810981,24,7,5,25,22,4,18,8
1461662013810981,10,17,-3,-54,-13,6,-8,-5
1461662013818988,-48,25,21,28,16,-3,12,-9
1461662013818988,-22,19,25,7,7,8,5,-15
1461662013834008,46,18,-11,-15,-2,2,-2,4
1461662013834008,-12,17,-3,5,2,5,3,12
1461662013841059,-5,41,-20,-46,-33,-24,-17,-14
1461662013841059,11,18,-3,-28,-18,3,-15,2
1461662013865079,-17,21,21,13,8,15,5,-9
1461662013865079,-14,69,12,8,0,-12,69,17
1461662013866020,2,-128,1,-9,-5,-23,-69,-3
1461662013866020,10,-128,-11,18,8,14,39,25
1461662013871051,21,-97,12,5,7,38,-15,-11
1461662013871051,22,21,-12,14,-6,-24,-25,7
1461662013879027,-56,-78,-7,6,-3,-19,21,-19
1461662013879027,20,-106,-53,-95,-53,-16,-2,-5
1461662013894039,-22,-71,36,85,70,21,11,0
1461662013894039,-11,51,7,0,26,26,7,1
1461662013901044,-21,-29,-5,-66,-11,-13,-1,-5
1461662013901044,23,-78,1,34,30,5,-12,4
1461662013917055,20,-26,-24,-58,-48,-21,4,1
1461662013917055,-13,66,-14,18,2,5,-22,-11
1461662013917055,12,-24,1,11,-5,-1,6,2
1461662013917055,-13,-51,-5,-3,-2,3,-5,-3
1461662013931062,39,-78,4,-16,-7,-1,4,9
1461662013931062,16,-66,29,28,29,29,-4,-5
1461662013938067,9,-37,-10,-6,-3,26,-7,1
1461662013938067,-74,48,8,14,6,-40,4,1
1461662013955079,11,127,-17,-3,-12,56,11,0
1461662013955079,-6,127,0,-4,-6,-38,-34,6
1461662013961087,-11,105,-1,7,-11,-20,1,-1
1461662013961087,2,107,5,22,17,-15,7,0
1461662013977099,23,127,-39,-98,-41,15,3,7
1461662013977099,-21,127,37,78,40,10,1,-16
1461662013977099,3,83,-4,1,5,-3,6,2
1461662013977099,0,49,33,3,0,-17,-9,-3
1461662013991117,4,37,25,-9,-9,-27,0,-6
1461662013991117,8,60,-27,-28,0,26,12,4
1461662013999127,-8,34,4,23,18,-9,0,3
1461662013999127,6,-1,-7,17,14,14,-6,0
1461662014014138,-5,2,-26,-19,-19,-22,-4,-6
1461662014014138,-6,41,-18,-11,-15,1,-10,-3
1461662014021186,-3,10,12,12,-6,-12,4,3
1461662014021186,6,-17,-8,-25,-13,35,2,3
1461662014037155,7,2,28,33,13,-38,-7,-6
1461662014037155,-42,24,24,0,-3,19,-3,-15
1461662014037155,-7,-4,-17,-4,-4,-31,-6,8
1461662014037155,-19,-14,-10,1,-5,6,-5,-3
1461662014051148,2,3,5,12,11,-1,4,-11
1461662014051148,8,12,-8,0,-1,13,9,-10
1461662014058212,-2,-4,17,-7,-8,34,19,6
1461662014058212,15,-4,29,12,7,-3,-8,0
1461662014073222,-4,0,-44,2,4,-23,-9,-15
1461662014073222,-12,6,-5,-45,-28,-19,-9,-11
1461662014081228,5,0,-10,-34,-17,-6,-5,13
1461662014081228,16,-5,31,70,40,10,4,14
1461662014096238,-4,-3,-6,14,19,11,2,-12
1461662014096238,-7,5,10,-12,-10,-7,-5,-4
1461662014104215,0,0,-24,12,-2,-9,-2,13
1461662014104215,6,-5,-2,-7,1,0,-1,3
1461662014111219,-4,85,42,7,-4,7,-3,-14
1461662014111219,-9,124,-2,9,-1,-9,-4,-6
1461662014118202,-8,127,-50,-19,-8,-4,-2,5
1461662014118202,5,127,-6,-12,-8,7,1,2
1461662014133208,-10,79,-25,1,5,7,0,-2
1461662014133208,0,66,11,-8,-7,-18,-12,-7
1461662014141226,4,18,28,9,4,15,-7,5
1461662014141226,1,0,-42,-18,-7,21,9,-1
1461662014156261,-9,-19,-7,-6,-1,-7,-11,-13
1461662014156261,3,-25,-4,10,1,-11,9,5
1461662014164266,-3,-58,-15,1,-2,-2,1,-1
1461662014164266,3,-34,38,-1,1,-8,-2,-2
1461662014171271,0,-41,-17,-3,5,0,2,-6
1461662014171271,1,-61,14,3,-1,-17,-3,0
1461662014178276,1,-59,-15,5,1,-4,1,4
1461662014178276,-2,-55,-42,-19,-8,0,-1,1
1461662014193338,2,-16,56,5,4,3,-1,-7
1461662014193338,-3,-50,-10,2,-2,-2,-5,-3
1461662014201344,7,-17,-3,-11,-7,0,6,10
