timestamp,emg1,emg2,emg3,emg4,emg5,emg6,emg7,emg8
1461661887906135,-1,-1,-4,1,-1,-1,0,1
1461661887906135,-1,-3,5,-2,-1,-1,1,-1
1461661887908135,-3,-4,1,-1,-4,-2,0,-2
1461661887908135,1,7,5,0,-2,-1,-1,0
1461661887929168,-3,-6,-13,-4,-2,-1,-1,-3
1461661887929168,-1,3,-2,-8,-3,-1,1,0
1461661887930153,-2,-6,-3,2,-2,-2,-2,0
1461661887930153,0,1,1,5,6,-2,2,-1
1461661887935166,2,6,13,0,-1,-1,-1,-1
1461661887935166,-1,-4,-12,0,-2,-1,-1,-3
1461661887944161,-2,-2,5,-5,-3,0,-1,-3
1461661887944161,-1,-3,-8,-5,-3,-1,-1,0
1461661887957183,1,2,-3,5,0,-2,1,2
1461661887957183,1,2,1,-1,-1,0,0,0
1461661887966185,-3,-7,-3,1,0,0,-2,-2
1461661887966185,0,2,-8,-3,1,-1,0,-1
1461661887980177,-3,-8,3,-1,-1,-2,-2,0
1461661887980177,0,-2,28,3,0,0,-2,0
1461661887996676,-4,-8,-34,-3,-2,-1,-1,-2
1461661887996676,-1,-2,-7,0,-1,0,-1,-4
1461661888004193,-1,5,5,-5,-2,-1,-1,1
1461661888004193,2,-5,-15,-4,-3,-1,1,3
1461661888005694,-3,0,8,4,3,0,-1,-5
1461661888005694,-3,-1,5,-3,-2,-2,-3,-5
1461661888017749,3,2,-1,0,-3,-2,1,2
1461661888017749,4,4,0,-1,0,-1,1,5
1461661888026714,-4,-3,0,-2,1,0,-2,-1
1461661888026714,-5,-4,-10,-6,-4,-4,-2,-3
1461661888040236,-2,1,12,-2,-2,-2,-2,-1
1461661888040236,3,11,-2,1,-1,-1,3,3
1461661888049226,1,4,0,-4,-2,1,-1,-1
1461661888049226,-6,-9,-6,-4,-2,-1,-2,-4
1461661888064237,-1,-2,-13,-5,-3,-2,0,-1
1461661888064237,-1,-5,-4,6,3,1,1,2
1461661888065725,0,-1,5,-1,-2,-2,-2,-2
1461661888065725,-5,-9,-7,-3,-4,-2,-3,-2
1461661888077795,0,0,3,-2,2,-2,1,-1
1461661888077795,3,2,6,2,1,-1,0,0
1461661888086740,-2,0,-3,-2,-3,-2,-2,-4
1461661888086740,-3,-5,-4,-5,-3,-3,-2,-2
1461661888100248,1,1,-3,-2,-3,-2,0,-1
1461661888100248,0,0,-3,4,1,1,0,0
1461661888109254,-3,-4,-8,-2,-3,-2,-3,-3
1461661888109254,1,1,15,-5,-2,-1,1,-1
1461661888131783,2,2,-5,4,-1,1,0,1
1461661888131783,-1,-3,-7,0,0,-1,-1,1
1461661888133284,-2,-1,-2,-2,2,0,-1,-2
1461661888133284,2,3,-17,1,0,-1,1,-2
1461661888137787,1,3,17,2,0,0,-1,1
1461661888137787,-3,-6,-1,-2,-3,-2,0,-2
1461661888146872,-2,4,0,-1,-1,0,-1,-2
1461661888146872,-2,-1,-12,-5,-3,-2,-2,-2
1461661888160402,1,-1,0,1,1,-2,0,0
1461661888160402,3,0,-4,0,-3,-1,-1,1
1461661888169393,-4,-5,-2,-1,-2,-1,-1,-2
1461661888169393,1,4,7,4,-1,-3,-1,-1
1461661888184403,-2,1,-2,-1,0,-1,-1,-1
1461661888184403,-2,-3,-8,-2,1,-2,-1,-1
1461661888185909,-1,1,5,-1,-2,-2,-1,-2
1461661888185909,-1,0,6,2,0,0,0,-1
1461661888206919,0,-3,-8,-5,-2,-2,-1,1
1461661888206919,0,2,-1,2,-1,-1,-1,0
1461661888208437,-3,-8,4,0,2,0,-2,-3
1461661888208437,-1,-3,2,1,2,0,-2,-1
1461661888220439,-1,-1,-8,-3,-2,-2,-1,-1
1461661888220439,-2,-1,-2,-3,-1,-2,-1,0
1461661888229444,-1,-2,-3,2,-1,-1,-1,-1
1461661888229444,-2,-2,-2,2,0,1,-3,-2
1461661888243953,2,-1,-3,0,-1,-1,-1,0
1461661888243953,-1,5,7,-3,-4,-3,-1,0
1461661888245443,-2,-4,-5,-1,-3,-1,-1,-2
1461661888245443,-5,-2,0,-2,1,-2,-3,-2
1461661888257950,-2,-1,7,-1,-1,-1,-2,-2
1461661888257950,-2,-4,-2,-2,-4,-1,0,-2
1461661888266957,0,2,0,-3,-3,-3,-3,-2
1461661888266957,1,5,-4,-3,-2,-2,-2,0
1461661888280466,-3,-8,-5,0,0,-1,-1,0
1461661888280466,-2,2,0,-2,-2,-1,-1,0
1461661888289474,-3,-7,-2,-6,-3,0,-1,-2
1461661888289474,0,-1,1,-1,1,-2,-2,0
1461661888304496,0,3,10,1,-1,0,0,0
1461661888304496,-1,-2,-9,-1,1,-1,-1,-1
1461661888305985,2,-2,-9,-2,-3,-2,-2,0
1461661888305985,1,0,3,-2,-2,-2,-1,0
1461661888317494,1,2,3,-4,-2,0,-1,1
1461661888317494,-3,-5,-1,-6,-4,-2,-2,-3
1461661888326999,-2,3,14,7,3,1,0,-2
1461661888326999,-2,-7,-3,-2,1,3,1,0
1461661888340049,1,0,1,4,1,1,1,1
1461661888340049,0,1,1,2,1,1,-1,0
1461661888349028,-2,0,-4,-6,-4,-4,-2,-1
1461661888349028,1,2,1,-1,-2,-2,0,0
1461661888363536,-1,-1,-3,1,0,-1,-1,-2
1461661888363536,-1,-3,1,-4,-2,0,0,0
1461661888365692,-2,-4,-13,-3,0,0,-1,-2
1461661888365692,-3,-3,-3,-2,-3,-2,-2,-1
1461661888377730,-1,1,5,-1,-3,-3,-1,-1
1461661888377730,5,5,-11,5,8,1,2,1
1461661888386675,-1,8,19,0,0,2,-1,-1
1461661888386675,-1,-6,-28,0,-2,0,-1,-1
1461661888416712,-2,-1,-6,-1,0,0,-1,0
1461661888416712,2,5,8,1,-1,-1,-1,0
1461661888418713,-5,-10,-11,3,0,0,-1,0
1461661888418713,0,-5,-3,-6,-5,-1,0,-2
1461661888423717,0,-1,9,-1,-2,-2,-1,-1
1461661888423717,-1,-6,-10,-5,-4,-1,0,-1
1461661888425718,1,2,-3,-4,-1,-1,1,-2
1461661888425718,-2,3,8,2,1,-1,0,-2
1461661888437710,-3,-6,-10,-4,-1,-2,0,-1
1461661888437710,0,4,3,-3,-5,-1,-1,0
1461661888446718,-3,-4,2,0,1,-2,-2,-2
1461661888446718,-3,0,0,0,0,0,-2,-1
1461661888459726,0,1,-3,-2,0,-2,-1,-2
1461661888459726,-2,-5,-3,0,0,-1,0,-1
1461661888468741,0,3,7,-7,-6,-2,-1,-1
1461661888468741,1,-1,1,3,5,0,1,-1
1461661888483760,-3,-1,0,2,-1,-1,-1,-1
1461661888483760,0,6,19,3,3,0,-2,-1
1461661888485756,-4,-17,-41,-10,-5,-1,-1,-1
1461661888485756,1,3,14,3,1,0,1,-1
1461661888497772,1,1,-15,-6,-2,-1,1,0
1461661888497772,-1,-9,-6,1,-3,-3,-2,-2
1461661888506762,-3,5,10,4,3,-1,0,-1
1461661888506762,-6,-2,-9,-7,-3,-1,-2,0
1461661888520788,2,0,1,0,-3,-1,-2,0
1461661888520788,-2,-4,-12,-5,0,-1,-1,-2
1461661888529775,0,0,6,-3,-5,-2,-1,-2
1461661888529775,1,0,11,13,9,1,-1,0
1461661888543810,-2,-4,-8,-2,-1,0,-1,-1
1461661888543810,-1,-1,-13,-8,-5,-2,-1,-1
1461661888545825,-4,0,10,-2,-1,-2,-3,-4
1461661888545825,3,-2,-5,9,2,-1,0,2
1461661888557834,0,1,3,5,4,1,0,0
1461661888557834,2,1,7,0,1,1,0,1
1461661888566815,1,2,5,2,-2,-1,0,-2
1461661888566815,4,8,7,0,-1,1,0,0
1461661888579824,0,-7,-7,-4,0,1,0,2
1461661888579824,-5,-6,6,4,-1,-1,-2,-3
1461661888588819,0,0,-2,-3,-1,0,-2,-1
1461661888588819,-3,0,7,-8,-9,-3,-2,-3
1461661888603828,-1,-6,0,4,5,1,0,0
1461661888603828,1,4,-3,-3,-4,-3,-1,-1
1461661888605841,-1,-3,-10,1,4,-2,-1,-2
1461661888605841,-1,-3,3,-1,-2,-3,-2,-1
1461661888617862,-1,4,7,-6,-5,-3,-2,-2
1461661888617862,-3,-5,-14,-8,-4,0,-2,-2
1461661888626845,-2,-2,-6,3,1,-2,-2,-1
1461661888626845,-1,-5,-12,-7,-3,-1,-1,-1
1461661888648864,0,5,18,2,0,-1,-1,1
1461661888648864,1,-2,-1,3,2,0,-1,-3
1461661888650862,3,1,8,6,-1,0,0,-2
1461661888650862,-4,-8,-27,-11,-5,-2,-1,-1
1461661888663876,1,-1,-7,0,0,-1,-2,0
1461661888663876,0,4,15,5,5,2,-2,-2
1461661888665877,-4,-17,-27,-7,-3,-2,-2,-1
1461661888665877,2,8,17,-16,-6,-3,0,0
1461661888677894,1,3,6,36,11,2,0,0
1461661888677894,-3,-1,-6,-6,-4,-3,-1,0
1461661888686900,-4,3,24,6,0,-2,-2,0
1461661888686900,1,0,9,5,6,2,1,2
1461661888708962,-5,-16,-38,-22,-8,-1,-2,-1
1461661888708962,-2,9,15,3,-1,-1,-2,-4
1461661888714968,5,2,-5,-3,0,0,0,-1
1461661888714968,3,7,17,0,-5,-3,-3,1
1461661888723066,1,6,8,-2,-1,1,0,0
1461661888723066,-5,-8,-6,1,-2,-2,-2,-4
1461661888730026,-3,-3,-7,-8,-2,-1,-3,-1
1461661888730026,4,3,-7,5,2,-1,0,1
1461661888738062,0,-5,-1,-5,-4,-1,0,-1
1461661888738062,-4,-5,6,-6,-2,-1,-1,-3
1461661888746027,0,2,-7,3,0,0,0,-2
1461661888746027,-3,-4,6,6,5,2,2,3
1461661888760092,-3,-4,1,-5,-3,-1,-1,-1
1461661888760092,-4,0,13,-1,-3,-1,-2,-5
1461661888769046,0,2,-7,-3,-1,-1,0,0
1461661888769046,-2,-7,-10,-3,-5,-1,1,1
1461661888783074,0,4,10,6,3,-1,0,-1
1461661888783074,-3,-3,-6,0,-1,-1,-3,-2
1461661888790081,-1,3,9,-2,-3,-2,-2,-1
1461661888790081,0,3,-2,0,-2,-1,0,-1
1461661888797083,2,0,-10,-4,-1,-3,0,0
1461661888797083,-1,4,6,-1,-2,-1,0,-2
1461661888807073,-5,-9,3,1,-2,0,-1,-3
1461661888807073,0,-3,-9,-2,-2,-3,-3,-3
1461661888820099,2,4,4,-3,-2,-1,-1,0
1461661888820099,-1,-2,-10,0,1,-1,0,0
1461661888829096,-3,-4,1,-2,-2,-1,-1,-2
1461661888829096,-1,3,6,-1,-1,-1,-1,-2
1461661888843091,-1,-2,8,0,-3,-2,-3,1
1461661888843091,-4,-10,-25,-2,1,-1,-2,1
1461661888850136,-2,5,8,1,-1,-1,-2,-4
1461661888850136,2,0,7,3,0,-1,0,0
1461661888857140,-4,-9,-17,-6,-4,-2,0,-1
1461661888857140,4,6,9,0,0,2,-1,1
1461661888874113,1,-2,-8,-2,-2,-3,-1,2
1461661888874113,4,6,3,1,0,-1,-1,0
1461661888880132,-5,-4,1,-4,-3,-2,-2,-2
1461661888880132,-1,-2,-3,2,0,-2,-3,-2
1461661888889124,-2,-5,-9,-3,-1,0,-1,-2
1461661888889124,-1,1,9,-1,-1,-3,0,1
1461661888903147,0,-5,-6,0,-3,0,0,0
1461661888903147,-3,-5,-8,-5,-3,-3,-1,-4
1461661888910139,2,4,13,2,1,-1,0,1
1461661888910139,-3,-5,-7,-4,-1,0,-2,0
1461661888917143,1,2,-11,-3,0,0,1,0
1461661888917143,-6,-3,0,-3,-1,-1,-2,-4
1461661888926149,2,0,1,0,0,0,0,2
1461661888926149,1,-4,-12,1,1,-1,0,2
1461661888940161,-1,2,15,2,1,-1,-2,-2
1461661888940161,-5,0,7,-2,-1,0,-1,-4
1461661888949167,4,5,-7,2,1,-1,0,3
1461661888949167,-5,-11,9,0,0,0,-1,-1
1461661888963177,3,3,-6,-5,-2,-2,1,3
1461661888963177,-4,-6,2,-1,-2,-3,0,1
1461661888970193,0,3,-13,-8,-2,0,0,-1
1461661888970193,-1,-3,-9,2,-2,0,-2,-4
1461661888987195,5,5,9,9,6,0,-1,0
1461661888987195,-2,-8,-7,-1,-2,1,-1,-3
1461661888992236,-2,-3,0,2,-2,-3,-2,-1
1461661888992236,5,2,0,-15,-8,-2,-2,2
1461661889000214,-9,-8,-2,-2,-3,0,-2,-2
1461661889000214,3,5,-2,5,4,0,0,-1
1461661889016215,-3,-5,-4,-2,-3,-3,-3,-2
1461661889016215,2,5,-5,2,0,-1,-1,0
1461661889023259,1,-5,3,-2,-5,-3,0,2
1461661889023259,3,2,1,-3,-1,0,-2,1
1461661889030228,-4,-6,-6,-1,0,-2,-1,-4
1461661889030228,-5,-1,13,3,3,0,-2,-1
1461661889046244,2,4,-3,0,-1,1,0,0
1461661889046244,-5,-7,-18,-7,-6,-2,0,-3
1461661889048245,-1,5,16,-1,-4,-2,-1,-2
1461661889048245,-1,-14,-34,1,6,1,-1,0
1461661889060251,-1,0,6,-11,-6,-4,-1,2
1461661889060251,1,7,12,25,15,5,1,-2
1461661889076274,-4,-1,4,-2,-2,-1,-2,-6
1461661889076274,-4,2,0,0,-1,-1,-1,-1
1461661889099288,4,4,6,-9,-5,-3,-1,4
1461661889099288,-4,2,-14,-4,-5,-2,-1,-3
1461661889100278,-4,-6,4,7,5,1,1,-4
1461661889100278,3,-3,-3,-6,-4,-3,0,-1
1461661889106280,2,-1,-4,-3,-2,-1,-3,2
1461661889106280,3,0,-11,-8,-5,-3,1,1
1461661889108294,-5,-1,0,0,-1,1,-1,-3
1461661889108294,-2,-2,-17,-1,1,0,1,0
1461661889120347,2,4,11,8,1,0,2,2
1461661889120347,-4,-14,-10,-15,-6,-2,-4,-3
1461661889129296,-1,4,-7,4,2,0,-1,-3
1461661889129296,-2,-2,9,5,1,-2,-2,1
1461661889143333,-2,1,2,-1,-2,-2,-2,-1
1461661889143333,0,4,11,-2,0,-1,0,0
1461661889150338,-1,-4,-4,-5,-4,3,-2,-1
1461661889150338,3,3,12,14,8,2,1,2
1461661889166339,1,-2,-6,-10,-1,1,1,-1
1461661889166339,-9,-2,5,10,-1,-3,-5,-6
1461661889172386,-4,-2,-6,-4,-1,-2,-2,-4
1461661889172386,4,7,12,-1,-2,-1,0,2
1461661889180334,-2,-5,-18,4,3,-1,0,2
1461661889180334,-2,-2,16,-12,-4,-2,-1,-3
1461661889189337,-2,-2,-5,-3,-3,-1,-1,-1
1461661889189337,3,-3,-20,-3,-3,0,-1,2
1461661889202345,-1,-10,-7,-10,-4,-3,-1,1
1461661889202345,-3,2,4,9,0,-1,-1,-2
1461661889211352,0,1,7,0,-1,-1,-1,-3
1461661889211352,-5,-6,-9,-10,-6,-3,-2,-2
1461661889226425,1,7,18,-19,-12,-1,-1,0
1461661889226425,2,4,-2,0,1,1,-1,-2
1461661889228399,0,-14,3,23,17,6,2,2
1461661889228399,2,3,-4,-14,-10,-2,0,-1
1461661889240390,-3,1,-3,12,10,2,0,-2
1461661889240390,-9,-6,5,-26,-21,-6,-6,-7
1461661889250382,3,8,3,16,2,1,-1,-1
1461661889250382,2,2,5,23,12,1,1,2
1461661889271399,-4,-3,0,6,2,-3,0,1
1461661889271399,1,0,-4,-2,5,2,2,-3
1461661889273400,1,-8,-14,-25,-11,-2,6,-1
1461661889273400,9,13,6,-11,-10,3,7,3
1461661889286405,-12,0,-9,-1,-3,-7,-12,-3
1461661889286405,-8,-5,-3,-1,1,-1,-9,-1
1461661889288425,-2,3,10,-10,-1,-1,4,0
1461661889288425,2,6,3,10,-5,-7,-6,-2
1461661889300433,10,-7,-26,-15,-4,-3,-5,5
1461661889300433,8,11,2,11,5,-1,0,-2
1461661889309433,-15,-9,15,-25,-13,-5,-5,-5
1461661889309433,-5,-6,-13,24,22,10,7,3
1461661889322442,-2,2,7,-5,-1,4,6,-1
1461661889322442,-8,-13,12,4,-16,-6,-6,-6
1461661889331437,5,15,0,26,18,6,3,2
1461661889331437,-2,-12,0,-7,-1,-2,-1,-4
1461661889346448,1,16,-10,-7,-4,-1,1,-2
1461661889346448,5,10,1,22,13,13,26,9
1461661889347449,-4,-16,-4,-22,-12,-3,-24,-4
1461661889347449,-7,-16,-7,-5,1,-2,-34,-6
1461661889360467,-6,-2,2,-3,-4,-18,-10,-8
1461661889360467,21,11,-7,-32,-17,-21,-11,7
1461661889375485,-7,-23,-8,10,0,-1,31,4
1461661889375485,6,10,13,-5,-1,7,1,7
1461661889382486,-2,-12,-2,-3,-10,11,20,-1
1461661889382486,-26,-2,-3,-9,7,-3,-50,-13
1461661889391499,8,19,2,-8,2,-8,-4,2
1461661889391499,-5,-18,-19,-1,-3,0,8,-1
1461661889406509,12,15,19,5,2,1,17,-1
1461661889406509,0,32,11,-26,-33,-6,47,1
1461661889408512,-20,22,-6,-29,2,5,-33,-17
1461661889408512,-2,-9,-2,68,25,2,-6,-4
1461661889429507,23,-21,3,-38,6,7,41,8
1461661889429507,-2,-127,-6,41,26,27,6,8
1461661889430509,24,-100,-2,29,8,-13,-31,5
1461661889430509,-20,-113,13,-18,-8,-42,-29,-4
1461661889442529,-27,-38,-7,32,3,0,-37,-24
1461661889442529,-10,-11,-7,-21,-2,26,55,5
1461661889451522,32,27,-6,-22,-3,18,-11,24
1461661889451522,-12,-19,-16,-40,-30,-18,22,2
1461661889466546,27,18,-11,-51,-27,-17,-36,15
1461661889466546,-16,-14,29,8,-15,-35,-13,-16
1461661889467534,-10,8,17,48,32,17,-10,-6
1461661889467534,11,19,-2,15,10,19,7,-12
1461661889480542,-10,46,35,-37,-15,-2,32,-1
1461661889480542,5,12,-50,85,82,33,12,3
1461661889488578,-4,47,-5,-48,-38,-17,-20,-12
1461661889488578,-3,24,-32,10,9,10,42,9
1461661889502570,13,54,13,-14,20,42,34,9
1461661889502570,3,103,20,6,-26,-36,-82,-13
1461661889511564,-9,-23,-11,30,3,-24,76,20
1461661889511564,28,109,9,-21,-8,8,-29,9
1461661889526633,-38,-33,-23,12,-6,-20,-48,-12
1461661889526633,0,54,2,-8,-4,-17,-51,-25
1461661889527606,-5,56,1,-42,-22,7,20,-13
1461661889527606,-18,30,8,-35,-19,10,14,-2
1461661889539641,12,-26,-18,50,26,8,16,29
1461661889539641,0,-39,1,-41,-25,-50,-10,2
1461661889548615,5,-18,-20,-13,-13,-17,-17,-6
1461661889548615,22,24,27,-6,4,11,4,-9
1461661889562625,2,17,-17,-18,-12,24,21,-3
1461661889562625,-49,-59,-17,-4,6,19,-21,-18
1461661889571607,8,-7,49,34,7,-27,-7,4
1461661889571607,13,-22,9,14,3,-8,-6,3
1461661889585632,-11,13,-32,4,-3,2,64,0
1461661889585632,11,53,1,-68,-23,38,0,17
1461661889593683,-1,56,30,32,12,-1,-41,-34
1461661889593683,8,48,38,15,-9,-38,-38,2
1461661889599642,12,0,-16,-13,1,-30,-20,10
1461661889599642,-19,-34,-6,2,10,7,40,5
1461661889608649,10,26,31,-54,-18,39,48,-9
1461661889608649,15,15,-15,61,21,4,-59,-17
1461661889622705,-20,-26,-8,0,-6,-42,-10,8
1461661889622705,-17,-55,-6,-23,-12,3,1,5
1461661889631649,-17,-41,-36,29,26,4,3,-10
1461661889631649,17,31,8,-81,-40,-13,-6,-12
1461661889645720,-9,-65,-7,32,7,10,-32,-2
1461661889645720,26,18,19,31,19,0,23,9
1461661889652680,-45,-11,-37,-65,-28,29,72,-14
1461661889652680,5,-56,-12,50,36,25,-34,21
1461661889659685,58,21,29,18,-16,-41,-42,19
1461661889659685,-50,-21,6,-80,-13,-28,-37,-19
1461661889668705,-24,-85,-32,60,14,29,16,-19
1461661889668705,-35,-44,-44,-47,-2,-10,6,-20
1461661889682701,60,25,46,69,-3,-23,10,27
1461661889682701,0,-10,-1,-25,-10,26,34,3
1461661889691710,-6,-3,-21,-77,-33,0,34,-5
1461661889691710,-26,-5,1,57,43,21,-24,-3
1461661889705730,19,38,45,6,8,-27,-31,7
1461661889705730,8,-11,-67,-39,-14,-14,-30,-35
1461661889712715,13,96,21,-34,-14,-16,-14,3
1461661889712715,-48,83,-5,57,27,10,33,13
1461661889720721,22,120,32,-22,-15,30,58,3
1461661889720721,5,50,-13,36,27,37,15,11
1461661889728744,-5,-55,6,17,-13,-67,-72,-7
1461661889728744,52,-128,27,-44,-33,-38,-23,6
1461661889742744,-49,-106,16,-14,6,24,-8,-13
1461661889742744,12,-63,-50,4,3,0,55,9
1461661889751735,7,-10,43,-21,4,21,-6,10
1461661889751735,2,23,20,82,40,37,67,28
1461661889765773,-49,-124,-27,-5,9,-7,-62,-31
1461661889765773,15,108,5,-33,-35,-37,-41,-9
1461661889772778,58,114,11,-17,-21,-36,0,18
1461661889772778,5,127,10,-24,7,10,53,31
1461661889779760,-35,127,-27,19,0,28,8,-3
1461661889779760,-12,112,16,-26,-3,26,28,-11
1461661889796770,-28,127,-36,-12,-14,-32,-72,-30
1461661889796770,47,17,49,-63,-51,-44,-6,-6
1461661889802788,56,-101,-55,43,35,16,10,15
1461661889802788,-38,-122,-35,47,27,18,33,-11
1461661889811790,5,-128,89,49,34,60,42,18
1461661889811790,-30,-128,-128,-128,-70,-22,18,0
1461661889825825,20,-108,18,75,14,4,-56,-7
1461661889825825,1,-123,105,127,21,-62,-57,-7
1461661889832803,36,-128,-33,-4,24,37,94,17
1461661889832803,-62,-109,15,-40,-9,42,-14,-6
1461661889839836,58,-69,-41,-30,23,6,32,3
1461661889839836,-56,-58,7,-128,-108,-57,-34,2
1461661889848832,24,-67,-4,127,97,9,-62,-28
1461661889848832,26,-49,22,10,14,0,31,11
1461661889862814,8,-17,-5,-128,-113,2,13,-1
1461661889862814,-6,-22,39,127,127,78,24,-9
1461661889871821,-63,-26,-63,-85,-30,-22,-20,1
1461661889871821,0,-17,-15,-36,-39,9,27,-7
1461661889885831,1,-1,38,-48,8,21,68,3
1461661889885831,51,-14,1,3,-45,-26,-67,23
1461661889892836,14,-7,-19,2,12,-31,-49,29
1461661889892836,-2,-4,24,38,-3,-19,3,-22
1461661889910846,4,3,-51,67,24,42,55,38
1461661889910846,-8,-106,-13,-3,-2,9,59,13
1461661889912848,35,81,8,0,-1,-5,-61,-26
1461661889912848,-35,62,20,-104,-58,-18,-35,-20
1461661889922855,6,43,22,82,43,-21,-51,0
1461661889922855,-14,-73,-4,31,9,-5,35,17
1461661889931861,-75,56,-25,-16,-11,21,39,2
1461661889931861,15,65,26,-77,-72,-38,-6,-16
1461661889945872,40,52,4,76,103,53,8,17
1461661889945872,-51,-62,-16,-95,-26,0,-46,-8
1461661889952906,-31,34,7,-103,-67,-25,14,-9
1461661889952906,-18,81,11,127,51,3,24,-26
1461661889968888,37,15,29,-69,-36,15,-39,-25
1461661889968888,30,-47,-43,52,60,-4,7,50
1461661889970890,-1,35,-11,-7,-5,-18,-1,-2
1461661889970890,27,78,0,-31,12,35,26,-5
1461661889982897,-12,-57,-32,-34,-51,-55,-43,-19
1461661889982897,47,-31,18,-26,-10,-6,21,18
1461661889991905,-18,38,14,28,-9,12,19,11
1461661889991905,13,56,-6,4,16,-14,-108,-21
1461661890005940,-86,-31,3,-10,-13,-34,30,5
1461661890005940,-65,-11,5,-20,-25,-2,10,7
1461661890012925,59,26,-16,-28,-23,-10,-7,-7
1461661890012925,50,42,-12,-72,6,37,25,1
1461661890028946,-95,-20,15,62,70,13,-6,-2
1461661890028946,24,-3,-42,-93,-36,-21,-13,-5
1461661890030932,39,33,38,34,-3,11,10,-12
1461661890030932,-6,42,8,88,53,14,33,30
1461661890042955,12,-12,10,-43,-23,-22,-35,-14
1461661890042955,11,-7,-9,-77,-33,10,42,-17
1461661890051979,-14,22,-24,103,51,22,-6,4
1461661890051979,-3,38,3,7,-19,-2,-16,-18
1461661890066014,-22,-16,5,-39,-41,-35,-8,4
1461661890066014,15,-1,12,4,-1,13,5,31
1461661890072961,-16,17,-11,-45,-17,-4,14,-31
1461661890072961,-11,32,0,33,-2,-1,24,29
1461661890089031,-111,-3,-8,-27,-15,-58,-37,0
1461661890089031,65,11,-3,4,-3,-53,-78,-11
1461661890091020,25,28,16,24,12,46,4,7
1461661890091020,3,25,-3,2,9,6,6,-18
1461661890102994,45,109,-7,-72,-42,35,45,15
1461661890102994,-35,92,-26,-54,9,8,-11,-24
1461661890112046,-25,-115,-4,49,-6,-14,2,-3
1461661890112046,53,-128,29,48,70,9,-8,1
1461661890126057,-2,-40,-23,-70,-37,-4,-2,-11
1461661890126057,-17,42,55,127,-6,2,-8,-33
1461661890133017,-16,-69,-13,-25,50,22,16,8
1461661890133017,-14,-99,-7,-94,-49,-29,-12,-2
1461661890149027,-7,-16,-15,33,7,6,35,16
1461661890149027,18,63,8,-6,-8,14,-17,2
1461661890150027,-35,-33,-5,-39,-23,14,49,0
1461661890150027,-14,-72,-23,32,-1,-35,-97,-11
1461661890163028,40,9,15,-25,-10,-37,3,30
1461661890163028,-27,65,-12,4,-1,14,33,-13
1461661890171089,31,-28,13,10,-1,-37,-22,12
1461661890171089,-9,-45,-19,-12,4,16,19,7
1461661890185052,4,18,0,25,-2,55,-9,-29
1461661890185052,34,44,-6,-12,3,19,20,-8
1461661890194047,-7,-24,-12,-86,-11,-7,-9,3
1461661890194047,-1,-28,8,-18,7,-8,14,1
1461661890209059,-4,-25,24,63,57,15,-9,-11
1461661890209059,6,2,30,-5,-7,1,1,-7
1461661890210073,-31,-128,7,-58,-44,-26,-23,-19
1461661890210073,45,-128,-46,34,45,22,19,3
1461661890223079,-1,-114,14,-21,-2,3,15,9
1461661890223079,-14,36,5,8,22,20,-20,-17
1461661890232075,16,105,1,-23,-26,12,-1,18
1461661890232075,-4,123,-1,5,-16,-11,11,15
1461661890245112,-39,127,-5,-6,-14,-32,-52,-18
1461661890245112,33,125,-13,-3,-12,-64,-33,15
1461661890254096,-20,121,4,32,15,43,3,-6
1461661890254096,-34,112,2,2,-8,-26,8,-16
1461661890269100,10,126,6,-2,-6,21,8,8
1461661890269100,-32,98,-11,-13,-14,7,14,-7
1461661890270100,-18,69,-47,-42,-13,-23,-10,-5
1461661890270100,0,44,29,-19,-17,2,7,6
1461661890282109,16,53,14,54,44,13,10,-1
1461661890282109,-3,40,5,34,33,13,5,-3
1461661890291115,16,9,-4,13,9,-9,-3,2
1461661890291115,-2,5,6,13,-21,-8,-10,-3
1461661890305125,-12,25,0,-34,-28,-19,-10,-13
1461661890305125,15,8,-8,0,6,11,6,-4
1461661890314132,6,-3,16,28,19,0,21,-10
1461661890314132,2,0,-15,-28,-26,-14,-38,14
1461661890329142,10,14,-1,6,3,-36,-42,3
1461661890329142,-21,3,-9,2,8,10,22,5
1461661890330144,-28,-4,2,0,-1,45,35,-10
1461661890330144,10,-1,-2,6,0,26,36,20
1461661890342151,2,4,-11,-24,-13,-21,-15,-14
1461661890342151,-10,0,-14,-19,-8,2,-2,-8
1461661890351158,32,-1,-6,-11,-15,-35,-14,5
1461661890351158,-25,-3,1,-10,-4,9,4,-9
1461661890365171,6,3,-21,-13,11,7,7,1
1461661890365171,11,2,-8,32,19,-3,-2,-4
1461661890381179,6,-1,16,43,26,-8,-14,2
1461661890381179,-5,-2,-1,10,9,0,2,0
1461661890389201,-15,2,-8,-39,-31,0,-3,-11
1461661890389201,-14,2,17,-9,-6,9,-3,-7
1461661890390186,28,36,-1,-13,-11,-3,-7,1
1461661890390186,4,90,-1,-3,7,-11,-2,10
1461661890402205,-30,73,2,18,6,7,7,4
1461661890402205,-20,76,-17,-16,-9,-21,-14,-3
1461661890411230,10,107,4,17,6,34,3,1
1461661890411230,23,96,-2,0,-6,-4,40,2
1461661890425268,-1,89,2,-1,2,30,11,11
1461661890425268,5,14,-9,-31,-24,-4,1,6
1461661890434230,11,-38,-8,-26,5,-30,-27,-1
1461661890434230,-9,-47,18,62,19,-10,3,-1
1461661890449239,-6,-44,-11,-3,-12,3,13,-16
1461661890449239,9,-53,2,-7,5,0,-11,-6
1461661890450227,5,-30,-4,7,6,-14,-3,8
1461661890450227,-10,-13,-7,-18,-4,10,-1,2
1461661890463240,-6,-6,-7,2,-3,-8,-5,-4
1461661890463240,8,34,2,1,0,3,-4,-3
1461661890471243,3,22,18,13,-1,-11,-10,4
1461661890471243,-27,22,-17,-15,-4,-13,-18,-15
1461661890485264,34,6,7,-7,-12,-7,-2,-6
1461661890485264,2,-27,8,1,1,32,13,19
1461661890494259,23,-23,0,2,-10,-25,-15,-3
1461661890494259,-24,-56,-10,-6,-8,8,-4,10
1461661890509329,-22,-58,-13,-14,-3,30,1,-8
1461661890509329,7,-27,4,9,10,6,1,-40
1461661890510271,10,-37,2,17,5,-23,-6,17
1461661890510271,-5,-50,-15,-55,-29,-24,-26,-7
1461661890522338,4,-17,17,56,29,-4,3,0
1461661890522338,-2,-21,6,-23,-12,-5,-2,1
1461661890531293,-7,-13,10,37,25,7,2,-1
1461661890531293,7,-7,-2,10,18,3,4,2
1461661890545324,-16,-6,-4,-22,-11,2,6,0
1461661890545324,4,1,18,9,3,0,-3,2
1461661890554302,-7,2,-17,-8,-9,-3,1,0
1461661890554302,4,-13,2,-1,-4,-6,0,8
1461661890569314,-7,-38,5,-8,-2,-18,-9,-7
1461661890569314,1,-15,10,4,-5,-2,-7,-2
1461661890570313,-6,-35,-41,-20,-13,-3,-14,-9
1461661890570313,-6,7,2,7,4,14,14,5
1461661890582337,13,22,-3,-5,2,-3,25,23
1461661890582337,-12,5,4,-3,-9,-37,-21,-7
1461661890591327,-10,-7,-1,1,2,30,-59,-43
1461661890591327,18,6,1,8,9,14,53,21
1461661890605352,-9,-9,-8,-8,-3,-6,-1,-13
1461661890605352,6,0,-5,6,8,2,35,25
1461661890614376,-1,1,7,-3,-5,-19,-11,0
1461661890614376,-2,-4,23,12,1,-5,-25,-17
1461661890629413,-9,1,3,-10,-9,-1,-2,-9
1461661890629413,5,-3,-32,0,0,5,-6,0
1461661890630358,-5,-6,-6,-15,-12,4,16,19
1461661890630358,0,7,23,-21,-7,3,-11,-5
1461661890642364,3,19,12,12,22,7,9,-10
1461661890642364,-5,-27,-27,-24,-8,-3,-10,-11
1461661890667384,4,-1,-2,24,8,0,17,20
1461661890667384,-2,-6,-16,7,-2,-6,4,8
1461661890668397,-12,-9,-4,-10,-3,6,-19,-22
1461661890668397,5,5,-1,-2,-5,-7,-4,-7
1461661890674388,11,15,24,-3,-7,-4,22,27
1461661890674388,-7,-9,-10,-7,0,3,-6,-1
1461661890688396,-13,2,3,0,-3,-2,-14,-30
1461661890688396,6,-4,1,0,-5,-4,-1,15
1461661890695460,7,0,6,-4,1,31,38,6
1461661890695460,-5,4,1,6,3,-2,-37,-14
1461661890702421,-2,-10,-4,-6,-5,0,13,-19
1461661890702421,6,2,-12,5,-3,-14,-1,7
1461661890711442,-3,-1,10,-3,1,-13,-4,16
1461661890711442,-6,-4,-29,-2,0,4,-6,-6
1461661890725451,-8,-14,-16,-3,-1,1,-5,-12
1461661890725451,4,2,23,5,2,1,1,-2
1461661890734458,-1,-1,9,-1,-2,-7,0,18
1461661890734458,-2,-5,-22,-2,5,7,6,-2
1461661890748441,4,18,46,9,-1,-8,-2,-6
1461661890748441,1,2,14,6,2,4,5,-1
1461661890755502,-1,1,10,-5,-3,-3,-2,12
1461661890755502,-7,-10,5,-1,0,-7,0,6
1461661890762450,-2,-11,-23,-11,-5,1,-9,-13
1461661890762450,6,5,-2,7,-2,-1,2,-4
1461661890771457,0,2,8,4,3,17,7,15
1461661890771457,-3,-3,-5,-1,0,2,6,1
1461661890786480,0,1,-8,-1,0,-9,-8,-10
1461661890786480,5,2,1,-2,0,13,11,-1
1461661890794487,0,-2,-1,-1,-3,-14,-14,3
1461661890794487,0,7,20,4,2,11,3,3
1461661890808544,-5,-12,-8,2,-2,-9,-12,-8
1461661890808544,4,-1,-23,-10,-2,-1,8,10
1461661890823494,0,-4,-5,-2,-3,-7,3,3
1461661890823494,-3,5,22,2,-1,0,-7,0
1461661890824494,-4,-14,-43,-6,-3,0,0,-2
1461661890824494,1,-1,5,1,-1,-1,-4,-2
1461661890831502,1,9,-6,1,-4,-3,6,6
1461661890831502,-1,-8,-7,-2,0,-5,-1,-2
1461661890845507,-2,4,10,2,3,6,2,1
1461661890845507,-3,-8,-11,-9,-7,-5,-1,0
1461661890854547,4,8,21,21,15,3,3,1
1461661890854547,2,7,10,-4,-3,-3,1,-2
1461661890868582,-4,-7,-14,-1,-3,-11,-7,-3
1461661890868582,2,-1,0,0,-2,8,0,-3
1461661890875573,-1,-7,-12,-9,-5,-6,1,-1
1461661890875573,-5,-2,-4,-2,-2,-5,-4,-3
1461661890891569,-2,-3,-1,-3,-2,4,1,2
1461661890891569,-1,0,-3,1,-1,-19,-6,-2
1461661890893549,-4,-11,-8,-6,-3,15,3,-1
1461661890893549,-1,-2,-3,1,0,-7,-2,-3
1461661890905550,-1,0,-2,-6,-3,1,-1,-4
1461661890905550,-1,-6,8,3,0,-5,-2,0
1461661890914557,-1,-3,9,2,1,-5,3,0
1461661890914557,-3,-2,-8,-5,-2,9,2,-2
1461661890928566,0,11,19,-1,0,-1,-2,-2
1461661890928566,-1,-4,-6,-2,-2,-1,-5,-2
1461661890934570,1,0,-20,-3,-2,-6,-1,0
1461661890934570,-1,0,10,-11,-5,-1,0,-2
1461661890967592,-4,-10,-20,-5,-2,-3,-1,-2
1461661890967592,3,5,10,24,10,9,2,3
1461661890968594,-1,-3,-14,-7,-3,-4,-3,0
1461661890968594,0,8,31,12,4,-1,0,0
1461661890969594,-8,-11,-4,-12,-4,0,-1,-4
1461661890969594,0,0,5,-5,-4,1,-2,-3
1461661890979606,0,-4,-7,-1,0,-5,8,16
1461661890979606,-2,-2,-11,-3,-5,1,-12,-21
1461661890988608,1,4,4,-1,-2,0,-2,-2
1461661890988608,-1,1,-5,0,-1,-14,0,-2
1461661890994613,-2,5,5,-2,-1,6,-4,-3
1461661890994613,-3,-6,-14,-1,0,1,7,7
1461661891012684,0,2,11,4,1,1,-2,-13
1461661891012684,2,-6,-24,-4,0,1,4,14
1461661891014629,2,9,7,-5,-5,-9,-11,-6
1461661891014629,-5,-1,13,2,0,3,4,3
1461661891024692,-3,0,8,-1,-4,-1,-5,-6
1461661891024692,0,-1,3,-6,-2,1,-1,1
1461661891033652,0,-2,-5,1,0,0,2,-3
1461661891033652,0,3,-3,7,2,-4,0,0
1461661891048654,-4,-15,-21,-2,-1,-3,0,-2
1461661891048654,1,4,7,-4,-2,3,0,-2
1461661891054660,-1,-1,-8,-6,-5,-5,-3,-2
1461661891054660,1,0,1,3,0,-1,-1,-1
1461661891071710,-3,1,0,-2,-1,0,2,3
1461661891071710,-1,5,6,5,4,2,1,-2
1461661891077671,-1,1,-3,-1,2,1,1,-1
1461661891077671,2,1,1,-6,-3,-6,-2,2
1461661891084698,2,3,-8,-5,-5,2,0,0
1461661891084698,0,1,-5,0,3,-5,-8,-5
1461661891101691,1,2,3,0,1,8,4,-1
1461661891101691,-4,-9,-15,-5,0,5,2,-2
1461661891108708,0,6,10,3,2,1,0,5
1461661891108708,0,-4,-7,-10,-7,-3,-1,-4
1461661891114699,0,0,4,4,1,-3,-1,1
1461661891114699,1,1,9,2,-2,-4,-2,0
1461661891131711,-2,-1,-1,-1,-1,3,0,-3
1461661891131711,-4,0,10,-5,-6,-2,-3,-2
1461661891132711,-2,-8,-22,-3,-3,-2,-2,-1
1461661891132711,-1,1,-5,-4,-2,-2,-1,-1
1461661891144758,-2,0,1,-4,-4,-4,0,-4
1461661891144758,-1,-5,-8,-4,-2,0,-1,0
1461661891153761,0,-1,21,2,3,2,1,1
1461661891153761,-2,-9,-19,2,1,0,-3,-1
1461661891168748,-1,1,2,0,-1,-1,-1,-1
1461661891168748,3,3,-7,-5,-3,-6,0,1
1461661891174780,-2,2,7,2,-1,3,-3,-2
1461661891174780,-3,-5,-8,-3,-2,-1,1,-1
1461661891191790,-1,-1,-1,-2,-3,-2,-2,-3
1461661891191790,-2,0,2,4,1,3,-1,-2
1461661891192768,-2,0,2,0,-1,-7,-3,-2
1461661891192768,-1,-3,-5,2,1,2,0,-1
1461661891204819,-4,-2,3,-2,0,-1,-2,-3
1461661891204819,3,-1,-1,-4,-1,0,1,-1
1461661891213767,1,2,-4,0,2,0,-1,2
1461661891213767,-3,-3,-8,-4,-1,-3,-2,-2
1461661891228794,-2,-1,1,2,-2,-3,-2,-1
1461661891228794,-2,1,13,6,3,1,-1,-1
1461661891234796,0,-6,-5,-4,-3,-3,-1,0
1461661891234796,-2,-6,-12,-3,1,0,-1,-3
1461661891250808,-3,-1,7,-1,-1,-2,-2,-3
1461661891250808,0,1,-13,-2,-5,-2,-3,0
1461661891259801,1,1,10,1,5,1,-1,1
1461661891259801,-1,1,1,-2,-1,-2,-1,1
1461661891273841,-3,-6,-6,-2,-2,-1,0,0
1461661891273841,-1,4,9,7,2,2,0,-2
1461661891275813,0,6,3,-2,-4,-3,-1,-1
1461661891275813,4,-2,-2,-2,-2,-3,-2,1
1461661891287839,-3,0,0,-4,-3,-2,-2,-3
1461661891287839,1,-6,-17,-5,-1,1,0,1
1461661891294843,0,0,2,0,-1,0,1,-1
1461661891294843,-3,3,7,1,0,0,-1,-2
1461661891311851,-1,0,-7,0,-1,-4,-1,-2
1461661891311851,-2,-2,9,2,1,-2,-2,-1
1461661891312836,1,-5,-16,-4,-2,-1,1,-2
1461661891312836,-3,-1,-8,1,-1,0,0,-1
1461661891336866,0,3,11,2,4,1,1,0
1461661891336866,-5,-9,-8,-9,-3,1,-1,-1
1461661891338868,-2,-2,2,4,0,-3,-2,1
1461661891338868,0,2,3,-2,-1,-1,-1,0
1461661891349875,1,3,1,-1,-2,1,-2,0
1461661891349875,0,0,-4,4,3,2,3,3
1461661891354868,-2,-7,-9,-2,-2,-1,-1,-1
1461661891354868,-3,-5,-3,-1,-2,-2,0,-3
1461661891378886,-1,-2,-2,0,0,-2,-2,-2
1461661891378886,2,9,9,-1,-1,-1,0,1
1461661891380899,-2,-4,-4,-6,-4,-3,-2,-3
1461661891380899,0,3,7,3,0,1,-2,0
1461661891384900,-2,-5,-3,-2,-2,-4,-1,-2
1461661891384900,-2,0,12,-2,-1,-1,-1,1
1461661891393895,-1,2,-7,2,3,2,3,3
1461661891393895,-1,5,5,-3,1,0,0,0
1461661891408938,-3,-6,-18,-4,-1,-1,0,-2
1461661891408938,4,3,8,2,3,3,-1,-1
1461661891414924,7,4,9,2,3,1,0,2
1461661891414924,0,-4,-2,-2,-1,0,-2,1
1461661891431942,0,-2,-10,-4,-1,0,-1,-2
1461661891431942,-2,-2,-4,7,0,-3,-1,-1
1461661891432925,0,1,-2,-6,-3,-2,-1,0
1461661891432925,-3,-2,5,5,3,-1,-1,-2
1461661891444950,-1,-1,3,2,2,-1,-1,-1
1461661891444950,0,-1,-3,-4,-1,0,-1,1
1461661891461957,1,2,1,-3,-2,1,1,1
1461661891461957,0,0,-9,-10,-3,0,0,-2
1461661891467961,-2,1,11,-2,-1,1,0,-1
1461661891467961,-1,-5,-18,-1,-1,-1,0,0
1461661891474952,-2,0,2,5,3,-1,-1,0
1461661891474952,-2,0,-1,-1,0,-1,-2,-1
1461661891491990,-2,1,3,1,2,0,-1,0
1461661891491990,0,-4,-5,-7,-1,-1,-2,-3
1461661891492968,0,-1,-9,-1,-2,-1,1,-1
1461661891492968,-1,0,3,-1,-2,-1,-1,-1
1461661891504974,-1,2,24,0,0,1,-1,-2
1461661891504974,1,2,3,0,1,-2,2,-1
1461661891513984,-1,-4,-6,1,-2,0,-1,-2
1461661891513984,0,-1,-6,-4,-2,0,0,-2
1461661891528014,-4,0,-3,0,-1,-3,-3,-3
1461661891528014,3,3,6,-2,-2,-2,0,0
1461661891535020,1,1,1,1,2,-2,0,-1
1461661891535020,-2,-2,0,-6,-1,-1,-2,-1
1461661891551008,0,-6,-17,8,4,1,-2,0
1461661891551008,1,1,4,0,-3,-3,0,0
1461661891553010,0,-1,2,-5,-3,-2,-1,0
1461661891553010,-2,0,-3,-6,-3,-1,-1,-1
1461661891574024,-2,-9,-3,8,1,-2,-2,-3
1461661891574024,1,4,13,0,0,1,0,2
1461661891576025,-3,-1,-1,0,-1,-1,-1,-1
1461661891576025,-1,-2,-1,-2,-1,-3,-1,-3
1461661891588036,-1,0,-18,-9,-4,1,-1,0
1461661891588036,1,0,0,5,1,-2,-1,0
1461661891595043,-4,-5,6,0,-3,-3,-2,-2
1461661891595043,0,0,1,2,2,0,1,-1
1461661891611050,-3,-5,-6,-5,-3,-2,-2,-4
1461661891611050,-2,-5,-6,-4,-1,1,-1,-2
1461661891618092,3,2,-2,-3,-2,1,0,1
1461661891618092,-2,-4,1,2,-3,-1,-2,-3
1461661891625117,-1,2,0,-9,-5,-4,-2,-2
1461661891625117,3,6,10,4,5,1,0,0
1461661891634066,-3,-7,-14,-6,-3,-3,-1,-3
1461661891634066,-7,-5,2,4,1,-2,-1,-2
1461661891648074,-1,2,-4,1,1,1,1,0
1461661891648074,-2,-2,-7,-1,-4,-3,-2,0
1461661891655108,-1,5,9,0,-2,-2,-2,0
1461661891655108,-4,-4,-3,-5,-6,-3,-3,-4
1461661891679155,-2,1,2,-1,0,-1,0,-2
1461661891679155,-1,0,4,3,0,-1,-1,0
1461661891680100,-1,1,-5,-2,-2,-2,-2,-1
1461661891680100,1,-1,-8,-4,0,1,-1,-2
1461661891685113,-2,-1,-1,3,-1,-1,-1,-3
1461661891685113,-1,-5,-5,0,-2,-2,-2,-1
1461661891694106,1,-2,2,-5,-4,-3,0,0
1461661891694106,-3,-4,-1,0,1,1,-3,-3
1461661891709146,-1,-1,-10,-6,-5,-2,0,-2
1461661891709146,0,2,8,-3,-4,-2,-1,-2
1461661891715151,1,4,8,7,7,3,2,2
1461661891715151,-3,-8,-15,-2,-1,-2,-2,-1
1461661891732136,-2,-4,-1,1,-3,1,-2,-1
1461661891732136,-1,-2,-12,-4,-4,-2,1,-1
1461661891738154,2,6,9,-4,-2,0,0,1
1461661891738154,-2,-3,-13,-2,-1,-1,-1,-2
1461661891745158,-3,-5,5,0,1,1,-2,-2
1461661891745158,0,3,0,1,0,0,0,0
1461661891754150,-2,-3,-4,-3,-4,-1,-2,-1
1461661891754150,-3,-2,0,4,0,-1,-2,-1
1461661891768218,0,2,-1,-5,-1,-1,-1,-1
1461661891768218,1,1,-1,2,2,-1,0,0
1461661891782182,-2,-8,-1,1,-2,-1,0,-1
1461661891782182,0,4,7,2,0,-2,0,-2
1461661891791205,2,-2,-7,-7,-5,0,-2,-1
1461661891791205,-1,-5,-3,0,2,1,-1,1
1461661891797182,1,3,-5,0,0,-1,-2,-1
1461661891797182,-2,-2,-1,-6,-2,0,-1,-1
1461661891814206,-3,0,5,0,-3,-2,-1,-2
1461661891814206,0,0,-5,2,-2,0,-1,0
1461661891815194,-1,-2,1,-2,-1,0,-1,-2
1461661891815194,-1,0,1,-5,-3,-1,-2,-3
1461661891828261,-1,2,3,3,0,-1,-1,-1
1461661891828261,-1,-5,-7,-3,-3,0,-1,0
1461661891835218,-2,1,-3,-2,-1,-1,-1,0
1461661891835218,-2,-1,0,2,-3,-2,-3,-2
1461661891851311,-1,-1,-3,0,2,0,-1,1
1461661891851311,2,6,11,3,2,0,0,1
1461661891857372,0,-3,-3,3,3,-2,-1,-1
1461661891857372,-1,-2,-1,-2,0,0,1,-1
1461661891874326,-2,-6,-7,-3,-3,-3,-4,-2
1461661891874326,0,-1,-2,-5,-2,0,0,-2
1461661891875341,-2,-1,3,-6,-4,-2,-1,0
1461661891875341,-4,3,3,2,2,0,0,-2
1461661891888392,-2,-4,0,1,-3,-3,0,-2
1461661891888392,-3,-3,2,-2,-1,-1,-2,0
1461661891895399,-2,-3,6,-2,-4,1,0,-1
1461661891895399,1,0,-5,5,5,0,-2,0
1461661891910407,1,-1,3,-8,-3,-2,0,-1
1461661891910407,-6,-2,-6,3,0,0,0,-2
1461661891917414,0,-3,-7,-2,1,0,1,2
1461661891917414,-3,-5,2,-2,-3,-1,-2,-3
1461661891934385,1,2,-2,-2,-1,-1,-2,-1
1461661891934385,1,-4,-3,-7,-4,-3,-1,1
1461661891935382,-2,-1,-4,1,0,-1,-2,-1
1461661891935382,1,5,-3,10,5,1,0,-2
1461661891948384,0,-4,10,-3,-2,-1,-1,-2
1461661891948384,-1,-4,-12,-5,-6,0,-1,-1
1461661891955414,0,2,2,9,7,1,1,2
1461661891955414,-1,-1,-1,-9,-3,-4,-3,-2
1461661891970404,-3,1,-1,2,0,0,0,-2
1461661891970404,1,0,1,-3,1,2,-1,0
1461661891985405,1,1,0,2,4,1,0,-1
1461661891985405,-4,-5,4,-11,-4,-2,-3,-1
1461661891994428,0,-4,-20,9,4,-1,-1,0
1461661891994428,3,1,3,-4,-4,-1,0,2
1461661891995428,-2,-10,-12,-4,-5,-1,-1,-3
1461661891995428,-3,-2,-1,0,-1,0,1,-4
1461661892008459,-1,0,1,-6,-2,-1,-2,-1
1461661892008459,1,1,-3,-1,1,-2,1,2
1461661892015438,1,5,0,-2,-2,-2,-1,0
1461661892015438,-6,-6,1,-9,-3,0,-1,-3
1461661892030449,0,1,-6,-5,-3,-1,-1,-2
1461661892030449,1,-1,0,-2,-2,-2,0,-1
1461661892045485,-3,2,5,15,10,2,1,-1
1461661892045485,-6,-6,-3,-7,-4,-4,-3,-5
1461661892054452,0,2,-4,2,1,0,0,0
1461661892054452,0,4,15,-6,-3,-3,-1,-1
1461661892055467,0,-4,-15,-26,-6,-3,-1,-1
1461661892055467,-4,0,5,11,-6,-3,-3,-4
1461661892068526,1,2,0,12,3,2,0,1
1461661892068526,-2,-2,-5,-2,-2,-2,-2,-1
1461661892075498,-1,-2,2,1,-3,-2,-2,-1
1461661892075498,-1,1,-8,-6,0,-1,-2,-4
1461661892091485,1,6,8,-4,-1,-2,0,-2
1461661892091485,-4,-14,-10,7,1,-1,-1,-1
1461661892097490,4,3,0,-6,-5,-1,0,1
1461661892097490,0,-1,5,4,3,3,-2,1
1461661892114496,-1,-2,-1,-1,-1,-1,5,-1
1461661892114496,2,6,1,2,2,-2,-7,-2
1461661892115497,0,-2,-2,-2,-5,-2,-2,0
1461661892115497,2,-1,-6,-4,2,-1,-1,-1
1461661892128533,-2,-4,4,11,1,-2,-2,1
1461661892128533,0,1,-8,-17,-3,1,4,0
1461661892135514,-2,2,16,17,3,2,1,-1
1461661892135514,-3,1,-6,-16,-11,-4,-4,-4
1461661892150522,-4,-4,-11,-3,-3,1,-1,-1
1461661892150522,3,4,8,17,9,3,3,3
1461661892157525,0,-2,-5,3,-2,0,1,-1
1461661892157525,-1,0,2,0,2,0,-4,-3
1461661892173537,-2,-8,-1,-7,-3,-4,-3,-3
1461661892173537,-1,-5,-11,-10,-10,-1,14,0
1461661892180542,-2,0,4,16,13,5,-3,1
1461661892180542,1,-1,-6,-8,-10,-5,-3,3
1461661892188546,0,-2,1,5,3,-2,-7,0
1461661892188546,-1,0,6,4,1,-2,-2,-2
1461661892195551,-2,-4,-7,-10,-6,-7,1,-2
1461661892195551,-5,0,-2,-14,-4,0,-13,-2
1461661892210563,0,3,5,12,0,-1,-5,-5
1461661892210563,-1,-3,-1,2,-3,-2,0,2
1461661892225572,4,9,9,0,2,3,5,1
1461661892225572,-6,-15,-8,-9,-6,-5,4,-4
1461661892233578,-4,-1,-8,-15,-7,-2,0,0
1461661892233578,5,5,-2,-3,5,3,-5,4
1461661892235580,1,-5,-1,41,18,2,-1,-2
1461661892235580,1,9,11,11,8,2,5,-2
1461661892248589,-1,3,4,-17,-16,-1,2,2
1461661892248589,-4,-12,-8,-9,-3,1,0,-4
1461661892254593,-4,-1,-3,-19,-6,-3,0,1
1461661892254593,1,6,-3,11,0,1,0,-5
1461661892270605,2,1,1,6,10,-4,-9,-4
1461661892270605,-6,2,0,-2,-9,-11,-3,0
1461661892277609,2,-8,-3,-10,-5,1,-5,1
1461661892277609,-6,-14,-10,-20,-22,-17,-7,-5
1461661892293621,11,12,2,-5,5,8,11,3
1461661892293621,-3,-10,-8,11,6,-3,-23,-7
1461661892295623,-9,1,14,3,-3,5,10,-2
1461661892295623,-4,6,-4,-20,9,8,13,2
1461661892307631,-4,-6,1,9,-4,2,12,4
1461661892307631,4,3,-6,-52,-15,-5,-9,1
1461661892323642,1,4,8,63,20,-2,-11,-2
1461661892323642,3,-4,16,40,18,7,1,-2
1461661892330648,-5,-3,-9,11,9,8,31,5
1461661892330648,9,2,6,15,5,7,-1,9
1461661892337652,6,13,0,-17,-17,-15,-24,-12
1461661892337652,-10,-21,-9,-17,-13,-8,-42,-8
1461661892353663,-7,-1,1,-20,-5,1,13,-2
1461661892353663,6,-4,8,24,1,-8,-5,5
1461661892355665,-4,5,-8,-13,2,0,2,2
1461661892355665,-1,-11,-9,-28,-12,-3,-31,-6
1461661892367677,-7,-6,-2,31,3,-13,-33,-8
1461661892367677,15,11,22,22,16,2,13,11
1461661892376703,-14,-2,-19,-40,-23,-13,-3,-5
1461661892376703,5,-4,28,-27,-17,5,34,2
1461661892390709,4,15,-16,82,74,29,-4,3
1461661892390709,5,25,4,-96,-36,-7,4,-9
1461661892404724,-36,-67,2,88,51,28,-1,-4
1461661892404724,-6,0,-15,-21,-7,-15,-3,2
1461661892413710,-1,-43,23,25,-2,3,34,15
1461661892413710,-3,20,-3,18,2,4,-14,-6
1461661892415714,12,-4,-26,-34,-12,1,83,11
1461661892415714,4,31,-2,-5,1,4,-59,-8
1461661892427775,-1,-38,-7,-25,-21,-45,-77,-8
1461661892427775,-15,-30,-5,-20,-9,-18,-1,-4
1461661892436736,-3,11,-4,-22,-14,20,70,13
1461661892436736,-24,-7,-4,27,16,39,6,-5
1461661892450746,2,14,-13,-69,-38,-29,-36,-11
1461661892450746,21,12,1,22,12,-18,-7,12
1461661892457763,11,1,2,34,5,-17,-46,-11
1461661892457763,0,16,-12,-44,-12,-11,27,-2
1461661892473773,-10,6,26,-13,15,29,1,-6
1461661892473773,-2,-34,14,59,20,29,41,-2
1461661892475775,3,-27,-14,-4,16,0,-5,0
1461661892475775,2,-62,-5,-2,-17,7,-15,-3
1461661892487770,0,-8,-11,-58,-1,2,-1,-7
1461661892487770,-6,-68,17,66,15,-1,10,8
1461661892503772,13,26,31,-111,-56,-16,-63,-9
1461661892503772,-7,-40,-18,117,64,1,66,18
1461661892510814,10,21,7,-19,-7,20,32,6
1461661892510814,9,29,7,14,21,38,24,11
1461661892517819,-31,-9,8,5,-8,-26,-76,-19
1461661892517819,-2,33,-8,-38,-25,-5,71,7
1461661892533808,-6,-9,-21,-17,-26,-15,-62,-12
1461661892533808,14,15,-22,2,8,-34,-47,-11
1461661892535810,-14,-1,16,-41,-25,-6,-13,-6
1461661892535810,-11,7,-1,4,11,16,65,3
1461661892547817,5,20,7,-6,-4,7,20,10
1461661892547817,-3,5,-21,-68,-45,-15,0,-4
1461661892572821,10,9,33,82,33,1,4,-1
1461661892572821,-7,10,-2,4,15,-23,-34,-3
1461661892573821,21,17,-10,92,45,41,43,20
1461661892573821,-6,96,-18,-108,-23,11,-1,-25
1461661892578014,12,44,3,50,-8,23,18,8
1461661892578014,16,6,8,110,69,14,-30,16
1461661892592991,-17,-19,8,-34,-10,-28,7,8
1461661892592991,-28,-28,5,-30,-12,-11,-12,-9
1461661892599996,34,14,-24,-66,-18,-14,-15,-7
1461661892599996,-27,-8,12,-73,-43,-29,-47,-12
1461661892607990,-14,-7,-13,-5,-8,-17,-2,-10
1461661892607990,20,-7,-31,41,21,40,53,8
1461661892617983,-6,-5,-5,-37,-14,6,-12,10
1461661892617983,7,-23,3,-10,-13,-21,-53,-12
1461661892631007,2,-5,19,-41,-26,-15,64,-5
1461661892631007,-38,-20,42,31,24,22,-55,-8
1461661892638012,-2,1,-17,9,18,-18,-7,0
1461661892638012,18,36,9,78,17,-5,6,13
1461661892654024,-1,-6,-6,6,4,8,-9,-18
1461661892654024,24,18,23,-79,-90,-32,-8,1
1461661892660029,8,-5,-12,56,86,54,37,18
1461661892660029,-20,-29,-44,-81,-24,7,16,-12
1461661892676085,19,27,33,51,2,-12,-52,-15
1461661892676085,-2,-4,-36,-4,22,5,17,6
1461661892683043,6,-15,37,-70,-64,-20,-39,3
1461661892683043,-8,39,-7,73,31,-4,30,-2
1461661892691060,-14,24,6,4,2,36,18,0
1461661892691060,-2,-11,-8,2,-9,-41,4,14
1461661892698044,10,9,-17,-65,-43,-48,-67,7
1461661892698044,-1,8,20,-46,-15,14,0,-33
1461661892713076,-20,-54,-34,-50,-36,-23,-34,-13
1461661892713076,26,-82,-2,60,23,-31,4,13
1461661892720081,11,-59,-10,-10,1,5,37,11
1461661892720081,17,-22,14,-4,-11,24,1,3
1461661892736078,-43,-43,13,-27,-16,0,-32,-44
1461661892736078,-22,-35,-2,-29,11,6,20,-1
1461661892738068,50,53,6,-33,12,-1,23,40
1461661892738068,-25,-4,-21,12,-18,12,19,-2
1461661892751136,-21,119,4,112,91,20,-14,-28
1461661892751136,6,-40,25,88,41,2,-32,1
1461661892758109,-26,-121,-77,-87,-65,-20,31,-4
1461661892758109,51,82,77,87,62,30,-54,20
1461661892773152,-9,71,-34,-62,2,-53,-13,0
1461661892773152,-29,70,-2,-26,-16,10,18,-5
1461661892780103,-34,41,-16,-7,-10,6,-25,-23
1461661892780103,-15,73,-33,-89,-36,-17,-10,13
1461661892796134,29,-113,3,-11,-31,-19,0,-10
1461661892796134,-34,6,26,-24,-17,3,5,2
1461661892798116,60,85,-5,50,24,2,58,39
1461661892798116,-42,18,-3,-35,-9,16,-9,-16
1461661892811131,-6,18,-17,-42,-19,-11,18,-4
1461661892811131,-16,-125,-42,-42,-44,-11,-31,-36
1461661892817135,3,-128,34,-50,3,30,-13,-10
1461661892817135,7,-124,2,-35,9,19,24,-7
1461661892833147,14,-125,10,40,28,-5,6,15
1461661892833147,-39,-117,-21,65,32,-6,28,12
1461661892841138,-20,-76,-8,-67,-37,-18,-8,16
1461661892841138,30,-81,21,112,76,1,-27,-23
1461661892856207,-1,-93,-4,-90,-58,36,77,12
1461661892856207,4,-36,15,-7,9,7,-82,-25
1461661892858169,67,-9,-3,60,29,-50,-29,22
1461661892858169,-6,-81,0,-110,-66,-18,9,3
1461661892870216,9,-42,2,-17,-7,34,44,-6
1461661892870216,-47,24,-4,73,43,30,21,7
1461661892879164,-59,-16,-6,30,14,-10,16,-3
1461661892879164,48,-45,-52,-128,-82,-12,15,-9
1461661892901191,-48,9,65,82,48,34,38,-18
1461661892901191,79,29,-11,44,27,-23,-58,8
1461661892903199,8,-17,-1,-75,-27,-24,-19,5
1461661892903199,25,-127,-24,3,-6,2,-24,4
1461661892916204,-59,90,27,74,33,-3,0,-31
1461661892916204,75,97,39,-47,-1,21,70,35
1461661892918195,-23,80,-19,54,13,16,-35,-18
1461661892918195,39,-61,-26,-67,-45,-2,60,23
1461661892930203,-23,51,-8,46,59,-19,-47,6
1461661892930203,-8,73,8,-65,-34,-24,-33,-28
1461661892939207,-66,95,23,30,16,52,39,-7
1461661892939207,43,-50,-23,-44,-11,-38,-63,-12
1461661892953228,-17,29,5,-41,-48,-44,8,23
1461661892953228,24,85,-34,-14,-1,1,66,2
1461661892960280,-58,65,-3,-90,-30,5,-6,3
1461661892960280,-18,-50,88,106,33,52,-23,-51
1461661892976291,70,26,-7,31,39,16,29,23
1461661892976291,6,81,-11,8,5,-20,-25,5
1461661892978264,43,37,-11,-51,-42,-8,16,11
1461661892978264,-49,-34,52,94,45,4,13,14
1461661892990261,41,45,-19,-51,-24,-6,-36,-10
1461661892990261,0,60,-12,-68,-32,10,-1,19
1461661892999261,-39,16,-18,19,27,-6,-5,-18
1461661892999261,-50,-10,-24,9,12,28,55,5
1461661893013303,84,40,-19,-28,-10,-2,-66,-21
1461661893013303,-9,43,4,-17,-20,-72,-23,32
1461661893021323,37,17,15,19,-6,-31,66,26
1461661893021323,-38,3,-17,2,17,48,-8,-21
1461661893036287,-16,-5,-4,-12,8,58,10,-36
1461661893036287,28,18,9,-22,-30,-36,-41,-22
1461661893038289,13,-58,-32,-22,-21,-50,-13,-19
1461661893038289,28,-14,5,22,9,-29,6,-17
1461661893050297,-40,61,-11,-59,-9,17,-7,-13
1461661893050297,-30,31,-27,3,-4,15,4,-18
1461661893059292,9,33,38,127,65,13,0,5
1461661893059292,2,8,-59,-70,-33,-20,-12,13
1461661893073359,-6,-13,-57,-94,-61,-25,-28,-1
1461661893073359,9,39,19,43,26,18,25,12
1461661893080307,-26,-107,8,-21,-3,18,-2,3
1461661893080307,3,52,-1,-7,-10,-19,-15,10
1461661893096376,-6,38,6,-9,-14,-29,37,26
1461661893096376,62,52,-8,-23,-16,-9,29,5
1461661893098331,-21,-89,4,10,11,54,-36,-12
1461661893098331,-7,-22,8,-5,10,-21,20,14
1461661893110386,1,-88,11,20,10,31,-20,19
1461661893110386,-7,-16,4,4,4,-4,35,13
1461661893126403,-1,117,8,-3,0,56,-6,-9
1461661893126403,8,127,-6,12,8,-69,-18,-7
1461661893133355,-2,87,-26,-44,-37,-16,-12,4
1461661893133355,-10,8,5,-11,-10,15,-22,-17
1461661893147370,-2,78,55,64,23,-27,-1,5
1461661893147370,-22,127,-42,-58,-13,14,7,-10
1461661893156361,22,47,47,68,43,13,8,12
1461661893156361,-8,-26,-3,70,24,7,-10,0
1461661893158396,-11,28,13,-7,-10,-12,10,0
1461661893158396,11,98,-1,-6,-10,6,-7,5
1461661893170518,-7,1,7,-4,-4,-17,-4,-3
1461661893170518,-3,-43,-20,-30,-7,4,-9,4
1461661893179588,7,22,-9,-5,0,7,23,9
1461661893179588,-3,51,11,17,2,13,-42,-14
1461661893193586,-20,-13,-8,-13,-19,-89,-67,-22
1461661893193586,-20,-31,9,-6,0,22,27,4
1461661893200589,11,15,-25,-7,-9,19,-23,11
1461661893200589,25,31,18,3,-12,-9,23,-2
1461661893216583,-7,-13,-14,-9,2,10,38,3
1461661893216583,-10,-17,-17,-32,-17,22,-17,-15
1461661893218599,14,4,-16,-59,-8,-18,13,-4
1461661893218599,-15,20,58,97,65,28,10,3
1461661893229742,13,-4,3,29,14,2,-8,1
1461661893229742,-4,-19,-11,-40,-10,-6,2,1
1461661893239706,-3,0,6,6,2,-13,-3,1
1461661893239706,-12,18,24,30,5,-4,-4,-2
1461661893253699,21,-2,7,19,10,8,7,3
1461661893253699,-24,8,15,-5,-8,-2,-4,-6
1461661893259705,30,84,-25,-28,-21,3,21,-8
1461661893259705,-65,100,-22,-40,-14,-5,-10,13
1461661893276716,33,74,16,16,-1,-17,7,16
1461661893276716,-22,39,-7,-10,-6,-24,-32,-15
1461661893277716,-5,29,-2,12,10,7,-23,-19
1461661893277716,-8,35,-7,0,-8,13,13,-18
1461661893289725,1,12,-14,-24,-11,11,41,26
1461661893289725,-11,-12,14,14,16,5,0,6
1461661893298732,14,-15,-4,17,4,-7,4,-1
1461661893298732,0,-8,-22,-44,-22,-20,-5,-6
1461661893313742,-3,-18,-1,-11,2,8,-15,-11
1461661893313742,14,-23,0,70,33,8,7,6
1461661893319749,-12,-17,24,15,7,-9,-6,0
1461661893319749,9,-6,-12,0,4,-1,1,-3
1461661893336758,-14,-6,-8,-27,-13,-3,-11,-10
1461661893336758,-7,28,-2,-18,-14,-3,2,1
1461661893337759,27,57,-10,-2,1,-2,3,5
1461661893337759,17,53,1,-2,4,-9,-8,5
1461661893349767,-68,-7,-18,-16,-13,-6,-26,-9
1461661893349767,20,-31,7,15,15,33,12,-8
1461661893358775,-24,-40,-5,-14,-20,-96,-53,1
1461661893358775,-3,-50,-3,-18,-7,41,20,-9
1461661893373784,1,-32,14,27,17,37,31,6
1461661893373784,32,-26,8,-6,-10,16,8,14
1461661893379852,-15,-42,-16,-6,-8,7,12,-17
1461661893379852,-9,-38,-3,-28,-10,-44,-21,-4
1461661893396809,2,-29,7,-16,-4,-2,2,-3
1461661893396809,-1,-13,15,55,36,17,10,5
1461661893397805,17,-10,5,23,8,0,1,3
1461661893397805,-4,-21,15,49,23,-3,-1,1
1461661893409844,7,-12,5,-20,-6,9,0,1
1461661893409844,-6,-5,-18,-36,-22,-23,-10,-2
1461661893424879,-6,-9,-7,2,-4,-2,-1,-2
1461661893424879,-2,-11,-9,-18,-10,6,-2,-7
1461661893432843,1,-12,-3,9,4,-5,-6,1
1461661893432843,-9,-21,10,-7,-3,-12,-5,2
1461661893447851,-10,0,-7,-5,-5,8,15,1
1461661893447851,5,-3,5,-8,-6,0,-11,-13
1461661893456843,4,2,-10,10,0,13,18,13
1461661893456843,-12,2,-5,-14,-10,12,-11,-7
1461661893457859,-22,-16,-6,-17,2,9,8,-5
1461661893457859,7,-4,-7,1,3,-11,-19,-8
1461661893469912,15,7,0,6,-8,-24,-17,2
1461661893469912,-5,2,-6,-58,-29,-20,0,3
1461661893478895,15,2,27,65,38,22,4,1
1461661893478895,-5,-7,34,12,-5,-13,-1,0
1461661893493889,1,-14,-31,5,9,6,11,-2
1461661893493889,-1,3,-3,-13,-4,4,-2,1
1461661893499892,10,13,15,-17,-5,-6,-9,-3
1461661893499892,-16,-26,-34,-11,-10,-2,9,-7
1461661893515899,-1,-2,3,0,-5,-3,-8,10
1461661893515899,-5,4,-7,1,-1,15,4,2
1461661893522948,-8,2,8,-14,-12,-32,-20,-15
1461661893522948,1,-9,11,12,5,47,50,28
1461661893529953,7,6,3,-9,-6,-17,-54,-33
1461661893529953,-1,1,-10,4,4,-19,10,4
1461661893538903,-8,-5,-1,3,1,-1,-26,-19
1461661893538903,0,-6,-15,-14,-2,19,10,-4
1461661893552924,15,11,19,3,-1,-21,27,38
1461661893552924,0,3,19,14,5,-2,-15,-23
1461661893559915,-8,-12,-29,-12,-3,15,13,6
1461661893559915,0,-11,-38,-5,-2,-27,-16,-6
1461661893575997,4,-3,-1,11,1,13,7,4
1461661893575997,1,9,18,1,0,-19,-1,4
1461661893582934,-5,-6,9,-16,-4,8,8,-8
1461661893582934,-5,8,-13,-22,-12,-17,-20,-9
1461661893598945,9,-6,-16,32,11,5,14,15
1461661893598945,-3,8,38,8,2,-3,-2,0
1461661893600946,-7,-1,4,0,3,11,-1,-24
1461661893600946,1,7,19,-1,-6,-24,-6,11
1461661893636970,9,-2,-8,-15,-11,-16,-12,9
1461661893636970,0,1,-11,1,-4,-29,-9,-7
1461661893638971,-12,-12,-6,2,9,78,32,11
1461661893638971,3,-2,-5,-2,-4,-8,0,-5
1461661893643976,5,-3,-4,-8,-8,-24,-10,13
1461661893643976,-4,-10,-14,1,7,36,10,-3
1461661893645978,-5,1,5,-4,-1,-11,-5,-23
1461661893645978,-3,-3,-23,-1,-12,-26,6,15
1461661893649980,6,1,-3,-8,-3,11,-24,-3
1461661893649980,-4,-12,-15,0,1,3,12,4
1461661893658985,-4,15,11,-3,-6,-18,-7,-16
1461661893658985,0,-9,-2,3,2,13,-2,5
1461661893672997,-3,-13,-28,-11,0,-4,5,6
1461661893672997,-1,-4,15,12,6,5,3,1
1461661893680056,-19,-22,-46,-15,-7,-7,-6,-18
1461661893680056,9,12,27,0,-6,-31,-5,4
1461661893696046,10,9,10,5,1,23,11,11
1461661893696046,-13,-20,-35,-10,-3,-13,-11,-5
1461661893703050,-5,3,8,8,5,2,5,-5
1461661893703050,3,13,18,3,-1,28,7,2
1461661893719060,7,16,12,0,-2,9,9,1
1461661893719060,-3,14,3,-5,-2,-11,10,-2
1461661893721062,1,2,-4,1,-1,-8,-21,-13
1461661893721062,4,7,6,0,-5,-9,-9,4
1461661893733071,-2,-3,24,-1,-4,-11,3,4
1461661893733071,-1,-8,-22,3,5,14,7,2
1461661893740077,-6,-19,-1,-9,-4,-3,2,-10
1461661893740077,8,-8,-28,-1,-2,-13,-11,3
1461661893756087,2,-10,10,0,1,-4,6,6
1461661893756087,1,10,18,-2,-5,9,-6,-5
1461661893763091,-2,-14,-20,-13,-2,6,-1,-7
1461661893763091,8,11,43,13,3,-15,-3,0
1461661893779104,-1,-4,-27,-5,-2,2,-13,4
1461661893779104,-13,-24,-31,-6,1,8,14,-4
1461661893780104,0,4,16,1,-2,10,3,-8
1461661893780104,-3,-13,-13,-2,-4,-7,-4,0
1461661893795128,6,5,7,6,-2,-41,10,12
1461661893795128,-2,12,34,-4,-1,22,-27,-25
1461661893800130,-2,-7,-9,-1,2,19,9,-6
1461661893800130,0,3,8,-4,-9,-18,-3,10
1461661893816154,-1,-4,-12,-4,-2,3,0,4
1461661893816154,0,18,-2,3,4,0,5,9
1461661893823154,2,21,5,1,2,-11,-4,-7
1461661893823154,-6,-27,-4,-1,-1,-3,-5,-3
1461661893839157,9,14,31,5,2,3,-8,2
1461661893839157,-16,-39,-42,-3,1,0,15,0
1461661893840158,6,19,20,-5,-4,-2,-9,-1
1461661893840158,-9,-21,-5,0,2,2,1,3
1461661893853194,6,5,29,5,3,6,2,2
1461661893853194,4,4,15,5,1,-5,1,-12
1461661893860200,-1,-18,-57,-14,-6,-12,-13,14
1461661893860200,4,7,-5,-11,-7,7,10,-1
1461661893876210,1,3,4,8,12,11,7,2
1461661893876210,3,9,13,13,5,-3,-5,1
1461661893882193,-2,-1,14,9,-1,-7,0,-6
1461661893882193,1,1,-9,-10,-5,-6,-9,-4
1461661893899213,-12,-14,-16,-3,-5,-7,-3,-6
1461661893899213,-3,-2,0,-5,-3,6,6,3
1461661893900202,-4,-7,1,2,-2,-2,-4,-4
1461661893900202,2,13,7,7,3,-1,4,2
1461661893913223,-3,-9,-9,-1,-4,4,0,-2
1461661893913223,-5,-6,-11,-10,-3,8,1,-1
1461661893920227,-3,-3,0,0,-4,1,-15,-6
1461661893920227,4,16,19,2,2,5,18,2
1461661893936229,1,-8,-10,-2,-4,-2,2,-1
1461661893936229,4,7,-17,-9,-5,-8,-4,5
1461661893942234,-13,-28,-12,1,0,-1,4,-7
1461661893942234,0,0,-24,0,-2,-2,-14,-6
1461661893959290,-6,-14,-2,-8,-4,1,-3,-1
1461661893959290,1,-1,13,5,0,-2,-1,-1
1461661893960247,14,41,34,6,2,-6,15,11
1461661893960247,-11,-38,-33,-9,-4,-2,-29,-23
1461661893973301,-4,7,0,-19,-13,0,4,-4
1461661893973301,1,-4,12,41,19,-2,-7,-1
1461661893980401,-2,-2,-2,6,1,-4,2,-2
1461661893980401,5,14,5,-8,-3,-4,5,7
1461661893996429,2,2,-8,1,2,6,-11,2
1461661893996429,-5,-11,5,-16,-9,-3,17,-1
1461661894002417,4,14,-7,-3,-1,-3,-19,-4
1461661894002417,-5,-5,4,3,4,3,18,7
1461661894019428,-4,0,-2,-11,-7,-3,2,-4
1461661894019428,3,9,2,-4,-3,-1,-4,4
1461661894020454,-18,-29,-5,2,2,1,0,-8
1461661894020454,1,2,-1,-6,-6,-4,-10,-3
1461661894041450,2,3,-2,1,2,-2,1,0
1461661894041450,1,7,4,-5,-4,-1,-5,-1
1461661894043451,-1,-4,3,1,3,-1,4,-3
1461661894043451,4,5,0,4,3,2,-3,3
1461661894056460,1,-2,-7,1,0,1,8,2
1461661894056460,4,12,16,1,-2,-1,-3,0
1461661894062463,-2,-3,-6,-9,-9,-6,-2,-6
1461661894062463,3,3,-2,-1,-3,-1,0,3
1461661894079472,1,1,3,21,12,4,3,2
1461661894079472,-1,3,12,-6,-4,-3,-5,-2
1461661894080473,-3,-8,-15,-6,-3,0,-1,-2
1461661894080473,0,3,14,4,0,-3,-1,1
1461661894092481,4,0,-12,-10,-5,0,2,0
1461661894092481,2,1,-17,-11,-4,-3,-5,0
1461661894101486,-5,-9,-4,-3,-3,-6,-1,-4
1461661894101486,0,1,2,-1,1,2,-3,2
1461661894115546,-1,1,7,-2,-2,-2,-2,-2
1461661894115546,-3,-7,-6,-4,0,0,0,2
1461661894122576,1,5,7,-5,-5,-2,1,-2
1461661894122576,0,-2,-10,5,4,0,-2,1
1461661894139550,-2,1,5,3,0,-1,0,-2
1461661894139550,1,7,-2,2,0,0,-1,-3
1461661894140551,-4,-6,-9,-2,-3,-4,-2,-3
1461661894140551,2,0,-8,1,-1,-2,0,-2
1461661894161594,6,21,37,13,7,3,-6,1
1461661894161594,-5,-7,-4,-5,-4,0,8,1
1461661894163567,-4,-3,-18,-9,-6,-2,-2,-2
1461661894163567,2,0,-9,-3,-4,-1,-1,2
1461661894175603,-3,-12,-15,-4,0,0,6,0
1461661894175603,0,-1,-4,-1,0,-1,-6,-1
1461661894182608,-2,3,13,5,0,-1,-2,-2
1461661894182608,0,0,2,0,0,-1,3,0
1461661894198607,-3,-4,-20,-5,-4,-2,-2,-1
1461661894198607,-3,2,11,2,1,-2,-4,-2
1461661894200591,-4,-3,-6,-4,-1,0,2,-1
1461661894200591,-1,5,8,6,1,-1,-3,0
1461661894212617,2,-3,0,-4,-3,-2,2,1
1461661894212617,-3,-3,-7,-10,-7,-3,-3,-2
1461661894221608,0,-2,-1,10,9,3,0,-2
1461661894221608,3,10,18,-9,-3,-4,-1,1
1461661894235629,-10,-25,-25,8,-1,-3,-3,-5
1461661894235629,2,-4,-22,1,0,-3,-1,0
1461661894242636,-5,-8,23,-5,-4,-1,-2,-3
1461661894242636,-1,-5,-6,-4,-1,1,-2,-3
1461661894258645,1,5,6,-6,-3,-1,4,2
1461661894258645,-6,-7,-4,-2,-2,-1,-6,-4
1461661894260646,-2,3,-4,0,-1,-1,0,0
1461661894260646,3,4,6,1,-2,-1,-7,-1
1461661894272654,-4,1,4,-4,-1,0,9,-1
1461661894272654,-1,-2,-7,1,2,1,-4,-1
1461661894281649,3,7,3,-1,-1,-1,4,-1
1461661894281649,-5,-4,-8,1,1,0,2,0
1461661894295671,5,5,-8,1,0,-2,-4,2
1461661894295671,-6,1,8,0,0,-1,-2,0
1461661894302676,-3,-1,2,-3,-5,-2,-1,-3
1461661894302676,2,2,3,4,4,0,-3,1
1461661894318714,3,-1,-6,1,2,-1,-2,-1
1461661894318714,-4,-1,4,-1,0,-2,0,-1
1461661894320678,-3,-1,-13,-9,-6,-3,-5,-3
1461661894320678,-5,-8,-2,-14,-10,-2,0,-1
1461661894340692,5,7,13,2,1,0,0,1
1461661894340692,2,6,3,4,4,2,3,-2
1461661894349698,-6,-16,-23,-4,-3,-3,-4,-5
1461661894349698,1,-4,-6,-5,-4,-1,6,0
1461661894355701,-2,-7,-4,-6,-6,-8,-30,-3
1461661894355701,-4,-7,5,-1,-2,4,22,0
1461661894362707,-1,2,-3,-2,-1,1,6,-2
1461661894362707,-1,-4,4,4,-1,-1,1,-1
1461661894378732,4,8,1,-3,-2,0,7,-1
1461661894378732,-1,-1,-1,2,0,-4,-11,-2
1461661894380719,-4,-20,-14,-1,1,-2,-10,-3
1461661894380719,2,11,6,1,1,4,11,0
1461661894392736,0,8,18,9,3,2,1,1
1461661894392736,2,2,2,-10,-5,-2,-4,-2
1461661894401734,2,5,5,3,2,0,2,0
1461661894401734,-5,-5,-12,3,0,-5,-8,-2
1461661894415849,-1,-10,-29,-14,-6,-1,3,1
1461661894415849,-3,-1,5,-4,-4,-1,-3,-1
1461661894422842,-1,3,-6,3,3,-1,1,-3
1461661894422842,2,-6,-7,7,5,-2,5,-1
1461661894438879,-5,3,24,-1,1,2,-24,8
1461661894438879,4,-1,1,2,2,4,33,3
1461661894440853,-3,3,-1,-5,-4,-4,-13,-9
1461661894440853,11,36,14,1,1,0,8,3
1461661894452890,-10,-27,-17,-3,0,0,3,-8
1461661894452890,-7,-18,-20,-2,0,-7,-23,2
1461661894461868,3,5,9,2,1,4,9,5
1461661894461868,8,12,8,5,0,-2,-9,1
1461661894475892,2,5,2,-1,-3,-4,8,0
1461661894475892,-2,12,9,0,-1,0,4,-4
1461661894482897,-2,-6,-6,-2,-1,-1,-2,-1
1461661894482897,-3,-12,-23,-3,-1,-2,-2,-1
1461661894497913,-3,8,36,0,0,-3,-9,-4
1461661894497913,-1,-8,-2,-1,-2,1,-20,-4
1461661894504936,2,7,-6,-6,0,4,19,2
1461661894504936,-1,1,3,1,-1,2,-3,4
1461661894512942,-1,-7,-18,-7,-3,-2,10,-1
1461661894512942,-1,-10,-6,5,0,-4,-11,-6
1461661894521923,-2,-6,5,-4,-4,-4,-8,1
1461661894521923,-5,-10,15,-3,-5,-2,0,-1
1461661894535918,0,-4,-20,17,15,5,6,1
1461661894535918,15,34,20,1,1,0,2,2
1461661894542963,-21,-42,-48,-6,-3,-6,1,-8
1461661894542963,-9,-15,-2,-10,-6,-6,-60,-6
1461661894558938,0,4,8,-4,-6,5,44,1
1461661894558938,1,-1,3,1,1,4,18,0
1461661894564942,2,12,24,5,2,-4,-2,-1
1461661894564942,3,7,-4,2,-1,-1,-8,-2
1461661894572947,-2,-3,-5,1,-2,-3,4,-5
1461661894572947,-4,-12,-21,-6,-3,-2,-19,-2
1461661894588956,-2,-5,4,-2,-3,2,20,7
1461661894588956,-3,-8,10,2,0,-3,5,-7
1461661894595962,3,14,-1,-1,2,3,-30,4
1461661894595962,-5,-8,-11,-4,-1,9,40,3
1461661894602967,7,16,6,-1,-2,-4,-13,-2
1461661894602967,-1,-5,-2,0,4,2,16,6
1461661894619036,6,6,3,0,-1,-3,-4,-2
1461661894619036,-13,-7,-10,-33,-16,-15,-29,-13
1461661894626985,-9,-4,10,23,3,-3,-15,-3
1461661894626985,21,28,5,11,8,2,19,7
1461661894632999,-32,-46,-24,-11,-4,-3,-7,-10
1461661894632999,-1,-12,-11,-2,1,1,-8,1
1461661894649001,4,-10,-16,-22,-12,-5,2,-2
1461661894649001,8,29,20,14,6,0,-1,-1
1461661894656005,-6,9,19,5,1,2,-15,0
1461661894656005,8,7,7,-5,-5,0,19,3
1461661894663009,-8,2,-2,-8,-1,-1,-11,-2
1461661894663009,0,-7,-23,-5,-2,-3,5,-4
1461661894678020,11,11,9,2,-2,0,-9,2
1461661894678020,-6,-5,7,8,3,4,4,-2
1461661894685025,13,18,11,6,2,1,-1,1
1461661894685025,-9,-21,-8,-3,-4,3,15,4
1461661894701035,1,1,-12,-4,-1,-2,-5,1
1461661894701035,-4,1,-5,3,-5,-6,-6,-5
1461661894708042,4,-1,2,-1,0,1,-8,-1
1461661894708042,-9,-15,0,-4,-3,-2,-5,-2
1461661894716046,-1,2,5,-4,1,1,12,-1
1461661894716046,6,6,3,20,12,-1,-14,-4
1461661894723052,-2,18,5,-4,-4,-4,-4,-2
1461661894723052,-13,-33,-4,-8,-5,0,1,-2
1461661894738061,9,10,-11,2,3,1,7,4
1461661894738061,-9,-3,-7,-6,-5,-4,-8,-5
1461661894753085,4,3,11,6,6,1,0,-1
1461661894753085,-7,-11,-4,-12,-13,-7,0,-3
1461661894762080,6,7,20,23,12,2,0,1
1461661894762080,-6,-16,-17,-13,-5,-3,-1,-3
1461661894763079,-2,-7,-3,-4,-3,-3,-3,-3
1461661894763079,10,21,-3,0,0,0,-10,4
1461661894776148,-2,-14,0,-6,-8,-1,18,0
1461661894776148,-7,-8,-7,5,3,2,-2,-2
1461661894783108,-3,-3,1,-7,-7,-4,-2,-4
1461661894783108,8,12,-2,2,6,4,-1,0
1461661894798108,-15,-25,-9,-16,-8,-6,-6,-7
1461661894798108,7,19,31,7,2,-2,3,3
1461661894805134,-2,-10,-17,-6,-5,-1,-1,1
1461661894805134,-8,-12,-10,-4,0,-2,-1,-2
1461661894821182,9,22,4,-5,-2,0,1,3
1461661894821182,-11,-11,-1,19,6,-2,-6,-8
1461661894823122,-1,-5,4,17,10,5,6,2
1461661894823122,10,15,10,-6,-4,2,3,3
1461661894836131,2,2,2,5,-3,-4,-4,-2
1461661894836131,-7,-21,-14,-20,-7,-6,-9,-1
1461661894843136,-4,7,12,23,5,2,1,-4
1461661894843136,7,8,-7,4,7,4,7,1
1461661894858172,-8,-2,4,-5,-3,4,3,-2
1461661894858172,1,-2,-3,3,0,0,-4,2
1461661894865178,-8,-16,1,-14,-6,-4,-3,-1
1461661894865178,-6,-8,-16,-8,-2,-1,-1,-1
1461661894881165,3,-8,-9,-9,-6,-2,-1,-1
1461661894881165,1,4,8,12,2,4,0,-1
1461661894883165,-3,3,-1,-1,1,-3,11,-1
1461661894883165,-3,-4,2,-3,2,2,-13,-1
1461661894896214,1,-7,-14,2,0,2,2,-1
1461661894896214,-2,1,2,-12,-8,-3,6,1
1461661894902219,2,0,-3,-18,-18,-12,-19,-5
1461661894902219,5,3,8,31,21,0,4,3
1461661894918230,-4,-4,4,-21,-7,-5,-1,1
1461661894918230,7,14,-4,8,2,2,0,-3
1461661894926235,-11,0,16,2,5,2,3,-4
1461661894926235,-21,-45,-49,-12,-16,-6,-3,-9
1461661894949241,7,9,-1,-10,-1,-2,-1,1
1461661894949241,0,-2,4,1,-4,-1,5,3
1461661894951214,-1,3,2,-9,2,2,-4,3
1461661894951214,0,11,4,-7,1,0,5,1
1461661894956245,2,6,-2,7,0,-1,-15,-5
1461661894956245,-8,-16,3,-9,-7,2,14,-1
1461661894963223,8,3,-8,-8,1,9,1,2
1461661894963223,-4,-4,7,0,-3,-5,-8,-3
1461661894978261,0,-11,-18,-23,-18,-27,-9,-1
1461661894978261,4,11,9,16,5,3,20,0
1461661894985268,-5,-5,-6,-5,-1,5,-10,-8
1461661894985268,-1,-2,9,21,8,-2,-23,-6
1461661895001311,3,-1,0,-2,-1,-2,-6,-2
1461661895001311,0,17,-12,-6,1,-5,-12,-4
1461661895003258,5,2,-3,7,-7,0,18,3
1461661895003258,-11,-9,-22,-84,-24,0,7,-4
1461661895016291,12,28,63,95,27,10,6,5
1461661895016291,-10,-24,-4,16,5,0,-9,-5
1461661895030303,-9,-7,-23,7,8,6,-4,-6
1461661895030303,11,14,-2,-11,-6,-2,8,5
1461661895038303,2,4,-1,-21,-6,-6,-7,2
1461661895038303,-1,-4,2,-7,1,1,3,-4
1461661895045281,-6,6,10,-3,-6,-6,-10,-3
1461661895045281,-4,-7,-7,4,-4,-6,6,5
1461661895060320,3,3,-12,-9,1,12,37,13
1461661895060320,2,9,9,1,-6,-17,-52,-11
1461661895069298,-3,-12,-10,-19,-6,-11,3,-5
1461661895069298,7,7,18,23,14,11,11,1
1461661895076304,1,1,-4,2,7,11,10,1
1461661895076304,-3,-5,-13,-32,-12,-6,-4,-3
1461661895082321,0,4,9,2,-4,-11,-11,2
1461661895082321,0,-3,-1,9,8,1,3,-1
1461661895098330,6,-2,-7,20,10,1,0,2
1461661895098330,-10,1,7,8,2,12,7,-5
1461661895105361,2,6,-5,-32,-16,-1,3,1
1461661895105361,6,-15,30,15,-1,-10,-5,3
1461661895121373,1,11,-26,4,8,4,3,-3
1461661895121373,-6,-8,-8,5,6,3,-15,5
1461661895123348,-7,1,-1,3,0,-3,14,4
1461661895123348,15,15,-1,-13,-11,-3,-26,-3
1461661895136356,-20,-22,-3,-6,-3,-1,16,-16
1461661895136356,-7,-6,-10,-25,-21,-21,-22,-2
1461661895142361,6,-6,12,30,15,-7,-40,3
1461661895142361,1,7,-6,-19,-7,3,38,1
1461661895158418,-4,-2,8,17,0,0,-26,-2
1461661895158418,-6,10,-3,-18,-8,1,25,-5
1461661895165423,-1,15,4,3,2,4,-4,-2
1461661895165423,-4,25,-5,-24,-15,-2,11,-7
1461661895182389,-4,-22,9,23,19,8,-2,9
1461661895182389,14,1,-2,19,10,2,17,5
1461661895183411,-18,-12,-5,-46,-18,-12,-36,-14
1461661895183411,2,7,-3,73,26,19,29,2
1461661895195444,-3,14,4,-15,-10,-8,-26,-16
1461661895195444,-23,-39,-20,-50,-14,-3,30,3
1461661895204392,3,6,27,36,3,9,-6,16
1461661895204392,9,-1,-3,-20,-3,-6,-20,1
1461661895218499,3,0,-13,-26,-16,-24,14,-4
1461661895218499,9,8,-1,61,19,8,-10,3
1461661895226499,9,-8,-12,-23,-12,-2,47,4
1461661895226499,-14,-11,21,-14,-6,22,52,13
1461661895241537,-2,-32,6,24,-5,5,-88,-6
1461661895241537,11,-9,-19,-42,-23,-38,-3,-16
1461661895243511,-18,-2,-9,-27,-12,-12,-14,-13
1461661895243511,13,43,46,59,23,-8,-1,4
1461661895255518,9,-48,-35,-3,12,16,30,14
1461661895255518,-25,-15,-4,-21,0,24,4,-6
1461661895264531,2,7,15,8,-13,4,52,-6
1461661895264531,9,-10,10,56,37,1,-32,-1
1461661895278552,4,53,18,-32,-20,-16,-51,-13
1461661895278552,7,33,-20,22,22,3,-11,8
1461661895285557,9,0,-25,-35,1,1,9,5
1461661895285557,-22,-19,-5,-44,-31,-14,-3,-20
1461661895302550,-4,7,0,32,6,6,55,9
1461661895302550,1,22,38,16,8,33,35,-2
1461661895304564,0,2,-15,18,25,21,48,11
1461661895304564,18,-18,-15,-33,-34,-42,-103,11
1461661895315560,-22,-34,10,-33,-19,-44,-27,-20
1461661895315560,-6,-83,-15,-46,-28,-9,-18,-10
1461661895324578,-7,-82,4,55,29,14,22,-12
1461661895324578,4,4,1,-53,-16,-5,12,1
1461661895338588,-15,-18,-34,47,29,19,22,12
1461661895338588,14,-13,-12,-33,-17,0,1,2
1461661895345593,-1,-13,10,15,0,13,-4,-7
1461661895345593,-11,36,-37,-49,-12,28,41,7
1461661895361651,35,75,70,37,14,-4,-53,7
1461661895361651,-8,60,4,-20,-21,-62,-52,-9
1461661895363649,2,75,-22,76,26,-4,-53,-8
1461661895363649,-13,28,-12,-92,-73,-29,38,-4
1461661895375661,16,40,3,63,55,54,43,7
1461661895375661,2,12,10,116,34,20,12,16
1461661895384627,-7,-42,-15,-21,-17,-9,69,26
1461661895384627,-27,-20,31,11,13,14,-97,-12
1461661895398632,-6,2,-18,-128,-52,2,123,-2
1461661895398632,2,-8,11,57,39,16,-117,-14
1461661895405681,32,38,16,-3,-1,-55,-17,5
1461661895405681,1,-6,-23,0,-5,-37,-22,5
1461661895420693,-14,-102,5,-27,-14,6,12,0
1461661895420693,-24,-78,11,-10,1,17,7,-27
1461661895427653,12,33,-18,-58,-13,21,-4,-11
1461661895427653,13,-23,10,96,46,24,16,-11
1461661895435644,-2,-3,-14,-74,-48,-35,-12,15
1461661895435644,1,127,1,39,24,29,66,34
1461661895451663,-44,100,58,27,18,65,20,-31
1461661895451663,27,15,-42,-18,-14,-4,-30,-24
1461661895458690,-4,-51,-4,67,9,-66,-84,7
1461661895458690,-13,-116,-70,-128,-74,-69,-7,7
1461661895465667,20,-128,37,-8,7,22,72,5
1461661895465667,47,-95,34,124,105,44,-15,9
1461661895480682,-32,-98,-3,-24,-11,7,-3,-24
1461661895480682,-11,-96,-28,-95,-40,-16,22,12
1461661895487682,-18,-67,-38,-87,-33,2,-30,-9
1461661895487682,-18,-88,29,41,6,4,-28,-7
1461661895495687,43,-46,3,31,11,-26,7,32
1461661895495687,-2,-19,15,25,15,-8,-11,10
1461661895504721,-34,-40,-7,-19,-12,-7,-16,-22
1461661895504721,15,-39,2,-13,-17,25,70,-10
1461661895518868,1,-6,-1,-33,-16,11,36,14
1461661895518868,10,8,-18,4,-2,18,-13,9
1461661895524868,1,-25,-45,-23,-11,-38,-66,-24
1461661895524868,-46,-21,29,19,-12,-50,-31,-6
1461661895540822,34,13,4,-30,-4,14,13,2
1461661895540822,7,-9,35,16,-1,5,49,-3
1461661895547838,-37,-15,14,95,30,40,-3,-8
1461661895547838,17,-2,-43,-112,-34,-3,-25,-27
1461661895563838,-37,3,-88,-127,-79,-79,-70,-13
1461661895563838,44,-4,121,116,68,22,4,7
1461661895565840,-32,-6,-35,-65,0,-5,18,-27
1461661895565840,1,2,-31,51,26,18,47,-4
1461661895578875,3,-1,17,-3,23,53,-3,21
1461661895578875,-16,-3,-57,-34,-13,6,-7,9
1461661895584863,37,0,26,-2,-19,-64,-53,16
1461661895584863,-8,-7,-5,-10,-2,-28,-33,-24
1461661895600863,24,-1,-14,-9,-7,-1,1,4
1461661895600863,-43,-55,10,14,10,12,16,-15
1461661895607926,-8,-81,0,-57,-24,29,60,-34
1461661895607926,-24,89,10,76,38,10,3,17
1461661895623939,24,88,11,7,-24,-24,-9,-6
1461661895623939,11,-59,-48,-125,-92,-50,-67,1
1461661895625915,12,16,49,124,89,12,24,1
1461661895625915,25,47,27,1,-6,8,-4,15
1461661895638924,50,120,-30,-34,7,35,66,24
1461661895638924,-71,-45,8,67,64,66,55,-1
1461661895644894,-8,-12,-10,-68,-46,-28,-101,-11
1461661895644894,-24,59,17,-6,-4,-45,-3,4
1461661895660923,-1,103,14,5,15,12,-7,14
1461661895660923,52,-52,-42,-116,-55,12,20,8
1461661895667927,36,3,40,108,80,-8,-41,-5
1461661895667927,-1,68,-7,-86,-12,2,121,43
1461661895683936,0,61,9,-8,-15,-9,-55,0
1461661895683936,-41,-42,11,-36,3,11,-33,-40
1461661895685938,-16,26,-41,-73,-34,-15,-35,17
1461661895685938,26,54,2,18,-14,-30,28,22
1461661895697946,-11,41,-5,2,-2,-4,81,36
1461661895697946,36,-19,1,60,33,31,-22,2
1461661895706952,-89,39,-8,-42,-28,-1,-34,-41
1461661895706952,31,34,21,-25,-15,-21,-38,-12
1461661895721005,8,29,12,73,55,39,34,25
1461661895721005,-41,0,-47,-95,-14,-8,11,-20
1461661895734969,73,35,-16,105,-12,15,4,3
1461661895734969,2,27,32,15,24,23,19,8
1461661895751981,13,33,-35,-70,-25,-19,-23,-29
1461661895751981,-65,3,7,127,79,44,84,17
1461661895752970,90,20,-12,-109,-38,-17,-70,23
1461661895752970,-31,28,4,53,-17,-66,-55,4
1461661895757973,-18,22,37,27,13,40,51,11
1461661895757973,66,2,-31,-29,-27,-55,-119,-47
1461661895767103,29,15,-17,-24,-5,-36,27,28
1461661895767103,27,30,-11,-24,-4,34,12,12
1461661895781084,-50,19,2,-24,-19,-13,23,2
1461661895781084,-49,3,11,-6,-7,22,15,10
1461661895788086,-64,30,27,-21,3,4,1,-35
1461661895788086,18,28,-49,-76,-34,-3,-38,-16
1461661895804098,54,10,39,114,71,7,-14,0
1461661895804098,71,8,54,-90,-28,-1,26,7
1461661895806112,29,35,73,84,54,29,30,17
1461661895806112,-48,23,-40,-14,18,19,22,-10
1461661895818119,8,7,-33,-116,-69,-23,-31,4
1461661895818119,-36,12,29,100,42,-2,21,-10
1461661895827125,44,26,-24,-27,1,34,36,-11
1461661895827125,-50,21,0,-24,-33,-9,-22,35
1461661895841122,-79,-2,4,35,7,-9,20,-26
1461661895841122,97,11,1,-28,1,0,8,52
1461661895848129,14,34,-24,-35,-49,-97,-36,-8
1461661895848129,-63,22,-11,20,12,10,17,-24
1461661895864140,-36,-1,-6,0,12,21,-50,-8
1461661895864140,16,11,-7,-34,-44,-38,13,-10
1461661895866171,-92,24,-23,-33,-10,56,50,-13
1461661895866171,46,22,20,-34,25,18,-1,-10
1461661895878207,11,0,18,32,19,-4,-25,0
1461661895878207,-19,12,51,39,19,5,-10,-18
1461661895887167,54,30,17,112,78,37,15,11
1461661895887167,0,21,-55,-128,-93,-38,-22,-15
1461661895901166,-6,-1,20,120,32,8,-5,-5
1461661895901166,-8,13,-28,-31,-13,-7,6,8
1461661895908198,-8,18,-5,-67,-25,-4,11,3
1461661895908198,-82,17,8,21,10,7,-27,-49
1461661895924240,46,-3,-23,-41,-19,9,-9,2
1461661895924240,46,15,-1,11,-11,-49,-1,50
1461661895926217,-48,35,-3,0,-8,-52,-19,-7
1461661895926217,86,18,-8,1,9,60,-12,-8
1461661895938192,-85,0,-16,-23,-5,-11,10,-11
1461661895938192,-89,11,-15,1,9,-12,-56,-53
1461661895947199,15,25,-11,-9,-7,7,34,11
1461661895947199,40,18,-4,-2,-17,21,41,25
1461661895961266,35,-1,-22,-41,-20,-3,-15,-8
1461661895961266,13,14,-21,-32,21,25,12,-4
1461661895968228,-29,31,28,76,57,13,-6,-17
1461661895968228,25,19,26,90,40,5,-2,8
1461661895991287,0,-7,-24,-69,-28,-17,-5,17
1461661895991287,8,13,-5,9,-4,-13,-12,-19
1461661895993229,-14,37,-1,-33,-30,-6,-12,-3
1461661895993229,26,18,-1,-13,0,-11,12,-1
1461661895998234,-48,-5,6,10,-4,-8,20,25
1461661895998234,41,13,-1,-20,-26,-13,-6,-3
1461661896007253,-71,8,-45,-17,-2,19,2,5
1461661896007253,8,16,18,16,10,-18,-10,2
1461661896021308,11,0,0,-12,-3,-12,2,-3
1461661896021308,-10,18,7,6,-6,-22,-35,-12
1461661896027313,54,-37,15,7,3,77,52,20
1461661896027313,-18,11,-15,-10,7,-12,-5,4
1461661896044324,27,-3,9,7,-5,-7,-19,-5
1461661896044324,0,14,-15,6,-2,39,33,-7
1461661896045268,2,44,-9,-82,-30,-17,-8,-6
1461661896045268,-31,13,28,76,67,22,12,8
1461661896058290,23,4,8,22,21,-9,-17,-5
1461661896058290,-23,12,-24,-48,-26,-7,-3,-4
1461661896066348,35,43,74,80,77,15,-2,6
1461661896066348,9,-128,-26,-63,-17,8,3,0
1461661896089356,-12,-113,21,-15,7,6,-9,-10
1461661896089356,33,70,-17,-23,-4,3,1,5
1461661896090301,-15,9,-25,-24,-30,-14,-9,1
1461661896090301,-29,54,1,7,-6,-21,-3,11
1461661896104321,-7,53,1,16,0,-25,46,10
1461661896104321,0,127,7,3,0,-10,-60,-19
1461661896105321,8,49,-15,-3,-11,42,8,0
1461661896105321,3,13,10,13,-2,36,11,12
1461661896117347,-10,4,-18,-27,-23,1,9,-6
1461661896117347,6,118,19,22,9,-11,-3,-5
1461661896126388,-16,16,-6,9,-5,-35,-12,-1
1461661896126388,1,-34,-14,-32,-22,-12,1,1
1461661896149352,11,17,8,-3,0,7,-13,-1
1461661896149352,-14,81,-6,-14,-3,-8,4,-10
1461661896150353,2,-24,2,34,31,-2,-11,-2
1461661896150353,3,-31,-2,-16,-13,-7,4,-1
1461661896171419,8,11,8,24,2,-12,-22,-13
1461661896171419,-12,41,13,31,23,11,16,-7
1461661896173387,-3,-33,-17,-34,-32,-22,-9,-7
1461661896173387,16,-12,-5,-9,-7,-18,1,5
1461661896177423,20,6,0,-6,2,-3,-13,2
1461661896177423,-33,17,4,-6,-6,-9,8,1
1461661896186374,-7,-10,-17,-11,-9,7,18,5
1461661896186374,-8,-5,0,4,2,15,14,7
1461661896200384,-4,-7,-4,0,5,-11,-31,-1
1461661896200384,-6,15,1,3,-2,4,18,-13
1461661896209386,10,-5,7,-3,-5,10,5,3
1461661896209386,-4,-11,0,4,-3,-25,0,3
1461661896224398,-10,-10,-20,-13,-1,31,6,-7
1461661896224398,2,17,18,15,3,-14,-2,6
1461661896225397,11,-4,-7,-4,-10,-17,-13,19
1461661896225397,0,-13,6,-19,-6,3,0,-3
1461661896237402,-13,-1,-10,9,9,-3,-11,-29
1461661896237402,-4,14,9,18,10,6,10,3
1461661896246409,8,30,6,-4,-10,-13,-19,5
1461661896246409,-7,63,-11,-4,-1,-4,-7,-4
1461661896261423,-4,96,12,-1,14,7,2,-25
1461661896261423,-14,76,-16,-10,-5,2,-1,-6
1461661896267426,8,46,-9,-8,-12,-17,1,18
1461661896267426,4,35,6,0,-5,-12,-1,0
1461661896284437,-9,29,3,2,4,7,1,-21
1461661896284437,-4,1,-20,-4,-2,13,-4,-4
1461661896286438,16,1,-3,-7,-8,-27,-9,19
1461661896286438,1,3,1,5,1,-13,-2,2
1461661896297445,-9,-10,2,-1,1,32,5,-16
1461661896297445,6,-6,7,-1,-1,-4,-1,3
1461661896306452,9,-24,-9,-1,-4,-4,1,13
1461661896306452,-1,-8,0,4,6,6,2,3
1461661896320473,-9,-15,2,-1,-1,-9,-4,-16
1461661896320473,2,-9,0,1,-6,-17,-15,0
1461661896327481,5,-14,-3,-9,-4,14,6,11
1461661896327481,-1,-28,-4,1,4,3,7,-1
1461661896344516,-12,-9,2,2,-1,1,-2,-12
1461661896344516,-1,-3,-1,0,3,0,-3,0
1461661896345494,5,-1,7,9,-1,-12,-2,8
1461661896345494,-9,-9,-1,-3,-4,7,-2,-4
1461661896357504,-7,-17,2,3,3,4,-1,-11
1461661896357504,2,-18,-1,0,-2,-2,-1,1
1461661896366494,3,-25,-7,-5,-4,-10,-3,5
1461661896366494,1,-24,-1,-5,-3,10,2,-1
1461661896380518,-7,-28,-3,-5,-2,1,-2,-8
1461661896380518,4,-8,2,0,-3,-5,-4,-1
1461661896387512,8,-15,-6,-8,-2,0,2,8
1461661896387512,0,-7,-4,1,-2,0,-1,-1
1461661896403524,-2,-12,5,-2,2,8,0,-6
1461661896403524,4,1,3,2,0,-4,-3,-2
1461661896418588,3,-4,-3,-2,-2,-1,-3,1
1461661896418588,1,5,6,1,1,-4,-1,-2
1461661896419536,-4,1,-11,0,-2,-11,-5,-6
1461661896419536,1,-1,9,3,-2,11,3,0
1461661896426552,4,-3,5,1,1,10,6,4
1461661896426552,-1,-18,-8,1,2,0,0,-1
1461661896442583,-2,-14,1,-2,-1,0,0,-2
1461661896442583,0,-14,-9,-8,-6,-14,-6,-2
1461661896447581,-1,-15,-5,-5,-6,-9,-2,2
1461661896447581,0,-10,6,4,7,6,1,1
1461661896463591,-4,-12,-4,-6,2,1,0,-5
1461661896463591,1,-6,-1,-12,-7,-3,-1,0
1461661896470596,-2,-10,12,3,1,-4,-3,0
1461661896470596,-2,-12,-3,4,1,2,0,0
1461661896477589,-4,-12,-11,-2,-3,-5,-3,-5
1461661896477589,-1,-5,1,1,-2,1,0,0
1461661896486595,-1,-5,-6,-15,-7,-6,-1,1
1461661896486595,-2,-2,-1,-2,-1,0,0,1
1461661896501604,-2,-4,3,0,-2,0,-1,-3
1461661896501604,-3,-3,1,-3,-4,0,0,-1
1461661896507650,2,-3,-5,2,-2,-4,-3,3
1461661896507650,0,0,4,3,1,4,0,1
1461661896522663,-4,-9,-13,-5,-2,2,-1,-6
1461661896522663,1,0,5,1,1,-1,0,-1
1461661896530627,3,-3,-4,4,1,-4,-2,1
1461661896530627,-2,-3,-2,-2,-1,0,-1,-1
1461661896545679,-2,0,-2,-6,-3,-3,-2,-3
1461661896545679,-1,-1,-4,0,-1,-2,-1,-2
1461661896546623,2,4,0,2,1,-2,0,3
1461661896546623,0,1,5,-6,-4,0,-1,0
1461661896561659,-4,-8,-16,1,-1,-1,-3,-3
1461661896561659,0,0,9,3,2,-2,0,0
1461661896567831,0,-1,-10,-3,1,-1,0,1
1461661896567831,-2,-4,-2,-2,-3,1,0,0
1461661896582795,-3,4,15,-6,-4,-2,-4,-5
1461661896582795,-1,-3,-4,7,4,1,0,1
1461661896598807,1,2,4,5,2,-2,1,1
1461661896598807,-3,-9,-13,-1,1,-1,-2,-2
1461661896613817,-5,1,1,-2,-2,-1,-1,-3
1461661896613817,0,-7,-9,-4,-3,-4,0,0
1461661896613817,-1,2,7,1,-2,1,0,0
1461661896613817,-2,1,5,-1,-2,-1,-1,-1
1461661896622810,0,3,7,-1,-2,0,-1,0
1461661896622810,-1,-1,-7,-2,0,-1,-2,-1
1461661896627814,0,1,-8,-3,-2,-2,-1,1
1461661896627814,1,-1,0,5,1,0,-1,-2
1461661896642852,-2,0,3,0,0,1,-2,-3
1461661896642852,-1,-4,-6,-2,-2,-1,-1,0
1461661896649857,-1,-5,-8,-1,0,1,1,-1
1461661896649857,-2,-1,0,0,-2,0,-1,-1
1461661896665843,3,9,12,0,1,-3,-2,-1
1461661896665843,0,-6,-7,2,-2,-2,-1,-1
1461661896666831,-2,2,-2,-7,-2,0,-1,1
1461661896666831,0,1,-5,2,3,0,0,-1
1461661896681840,-2,-1,7,-1,1,0,-1,-3
1461661896681840,-2,-1,-2,0,-2,0,-1,-1
1461661896687857,0,-2,2,-1,0,-2,0,1
1461661896687857,-3,-1,-2,-1,-2,-1,-1,-1
1461661896702867,0,1,-3,-5,-1,-1,0,0
1461661896702867,-3,-5,-2,5,-2,-3,-2,-2
1461661896709919,-1,3,6,-2,1,0,-1,3
1461661896709919,0,-1,-3,1,-1,0,1,0
1461661896725930,-1,2,-3,0,-1,-1,-1,-4
1461661896725930,-1,3,4,-4,-1,-2,0,-1
1461661896732894,-1,-1,-3,-1,-2,-2,-1,-1
1461661896732894,1,-1,-6,-2,-2,-2,-1,0
1461661896741884,-3,-5,-5,-5,-4,-2,-3,-4
1461661896741884,0,2,-3,-8,-3,-1,0,0
1461661896747901,-1,0,8,2,0,-1,-1,-1
1461661896747901,-1,-1,8,-3,-1,-2,-1,0
1461661896763917,-4,-8,-11,-1,-1,2,0,-3
1461661896763917,-1,0,-3,-5,-1,-2,-1,-1
1461661896769960,-2,-6,-12,1,0,0,0,1
1461661896769960,2,6,6,-1,-1,0,-1,0
1461661896785926,-5,-6,1,-1,-2,-2,-2,-2
1461661896785926,3,2,1,-1,2,1,0,0
1461661896786927,-1,-3,-2,-3,-4,0,-2,-1
1461661896786927,0,-3,-6,9,4,-1,1,1
1461661896801926,-7,-5,-2,-11,-5,-2,-2,-3
1461661896801926,-3,0,-4,9,-3,-1,-2,-2
1461661896807988,2,2,4,5,7,1,0,1
1461661896807988,1,2,-1,-11,-3,0,-1,0
1461661896822999,1,-2,0,16,4,0,0,0
1461661896822999,0,-4,-4,-6,-1,0,-1,-2
1461661896830004,-1,0,0,-2,-3,-2,-1,1
1461661896830004,-3,1,0,-4,-4,-3,0,-2
1461661896846015,0,3,6,-7,-5,-1,-2,1
1461661896846015,0,1,2,-2,-2,-3,-2,-1
1461661896846959,2,0,-5,1,1,1,0,1
1461661896846959,-2,-4,-3,-4,-1,-1,-1,-2
1461661896861969,0,-1,-6,-1,-2,-2,-1,-4
1461661896861969,-1,0,7,3,0,-1,1,0
1461661896868031,1,0,8,-3,-1,0,-1,0
1461661896868031,-3,-7,-18,-1,-1,1,0,0
1461661896882982,-4,-2,6,-1,-2,-2,-4,-6
1461661896882982,2,0,-2,-9,0,0,0,-2
1461661896890046,1,2,2,7,1,-2,0,-1
1461661896890046,-2,-4,2,3,0,-2,0,0
1461661896907026,-3,0,-7,1,-2,0,-1,-3
1461661896907026,-2,-2,1,-4,-1,-2,-2,-1
1461661896908001,-1,-3,-6,-9,-6,-2,0,0
1461661896908001,0,4,5,1,-1,-1,-1,0
1461661896930017,-3,-8,-19,0,0,-2,-1,-2
1461661896930017,0,1,7,-4,-2,-2,-2,1
1461661896931020,-1,3,9,3,-1,0,0,-1
1461661896931020,-1,2,2,-2,-1,1,-1,-1
1461661896943041,-1,-2,-5,-4,0,-2,-2,-1
1461661896943041,1,0,0,3,0,-1,1,0
1461661896950030,-3,-10,-11,-2,-2,1,2,1
1461661896950030,-2,-5,0,-4,-3,0,-1,-4
1461661896966102,0,0,-3,-1,1,-1,-2,-2
1461661896966102,-3,-6,-10,1,-2,-2,-1,1
1461661896967059,0,-1,0,0,-1,-1,-2,-1
1461661896967059,1,7,4,-1,-2,-1,-1,1
1461661896988087,0,2,1,-3,2,0,0,1
1461661896988087,-2,-3,-2,0,-3,-1,-2,-2
1461661896989059,3,1,-2,8,3,-3,-1,1
1461661896989059,0,-4,1,0,1,-1,-2,-2
1461661897004070,1,2,4,-5,-1,-2,-3,0
1461661897004070,0,0,-6,-3,0,-1,1,-1
1461661897010104,-3,-2,2,3,0,-1,1,0
1461661897010104,0,1,-6,2,1,-1,-1,-1
1461661897026099,-3,-1,9,-1,-1,-1,-2,-4
1461661897026099,0,0,1,-2,-1,-1,2,0
1461661897027101,1,3,-1,-7,-3,0,-3,0
1461661897027101,-1,-2,-3,0,2,-1,0,0
1461661897042110,-5,-5,-3,-2,-4,-3,-3,-4
1461661897042110,1,9,1,0,1,-1,0,-1
1461661897048113,1,-4,-3,-3,-2,0,1,0
1461661897048113,-6,-3,-3,-5,-3,-2,-1,-1
1461661897063169,-2,-2,1,2,-2,-3,-2,-2
1461661897063169,2,1,-1,2,1,0,0,2
1461661897070174,0,1,6,-5,-4,-1,-1,-2
1461661897070174,1,-3,-6,-5,-1,0,-3,-3
1461661897086217,-2,-2,-2,1,0,-2,-1,-3
1461661897086217,-1,1,1,0,-2,-2,-1,1
1461661897086217,1,-1,4,-6,-3,-1,-1,-1
1461661897086217,-2,0,6,4,2,-1,-1,-2
1461661897102229,-6,-5,-6,-1,-1,-1,-1,-3
1461661897102229,-1,-3,2,-4,-3,-2,-1,0
1461661897108235,1,3,0,13,3,-1,0,1
1461661897108235,1,-2,-6,-11,-5,-2,-1,-1
1461661897123245,-3,-3,3,0,-2,-1,-2,-1
1461661897123245,-2,-3,0,-3,-2,-2,-2,-2
1461661897130250,-2,-5,-5,0,-1,0,0,1
1461661897130250,0,2,2,0,-1,-2,0,-1
1461661897146261,-2,0,-5,-1,-1,1,-1,-4
1461661897146261,-2,-5,-8,-1,0,0,-1,0
1461661897146261,-2,3,7,-2,0,-2,-2,-1
1461661897146261,-1,3,6,4,0,1,0,0
1461661897161271,1,1,-6,-3,-2,-2,-3,-2
1461661897161271,1,1,16,3,-2,0,-2,-1
1461661897167276,-2,-4,-23,-9,-3,-2,-1,-1
1461661897167276,-2,0,-1,-2,-2,-1,-1,0
1461661897184286,-4,-6,-7,1,1,0,-1,-3
1461661897184286,1,1,-3,2,1,1,0,1
1461661897190292,0,-1,4,0,-1,1,0,1
1461661897190292,0,-1,-2,-7,-4,-2,-1,-1
1461661897206315,0,-1,-10,-19,-8,-4,-2,-2
1461661897206315,0,-3,8,30,9,1,0,-1
1461661897206315,2,6,20,6,5,2,2,1
1461661897206315,-1,-3,-1,0,-1,-1,0,-2
1461661897222316,-4,-4,-5,-5,-3,0,-3,-4
1461661897222316,0,-3,-11,-13,-4,-3,-1,0
1461661897228350,-2,-3,-6,-3,-3,-2,-2,-1
1461661897228350,0,2,-3,0,-1,-2,-2,-2
1461661897244359,-6,-3,10,1,-3,-2,-4,-2
1461661897244359,2,3,-2,-5,-1,0,1,1
1461661897250336,0,-4,-2,2,0,0,1,0
1461661897250336,-1,-3,0,-3,0,0,-2,-1
1461661897266347,-2,1,-3,4,1,-1,-2,-1
1461661897266347,-1,0,0,-3,-2,-3,0,1
1461661897266347,-2,-4,-8,-4,-2,-2,-1,2
1461661897266347,-5,-6,-6,4,-1,-1,-1,-2
1461661897290363,1,-2,1,2,4,1,1,-1
1461661897290363,0,0,0,-7,-3,-2,-1,-1
1461661897290363,1,0,-7,-5,-2,0,-1,0
1461661897290363,1,1,1,2,3,-1,-1,-1
1461661897318382,-1,2,-2,2,-4,-2,-3,-3
1461661897318382,-4,-6,9,0,0,-1,-1,0
1461661897326388,0,-5,-14,3,1,1,0,-1
1461661897326388,-3,-5,-12,-3,-3,0,-2,-3
1461661897328389,2,4,2,-5,-1,-2,0,-1
1461661897328389,-2,-3,-3,-4,-3,-2,-1,-2
1461661897332392,-2,-5,1,-4,0,-3,0,-1
1461661897332392,-5,0,11,3,0,-1,-1,-2
1461661897341398,-3,-3,-16,1,-1,-2,-1,-2
1461661897341398,1,0,-4,0,-2,0,-2,0
1461661897347401,-3,1,6,-4,-5,-2,-1,-2
1461661897347401,-2,-2,3,-1,0,0,-1,-2
1461661897364414,-3,1,6,0,-1,-1,1,-2
1461661897364414,4,7,-4,-2,-1,-2,0,2
1461661897370496,-1,-3,-6,-4,-2,-2,-2,-2
1461661897370496,-2,-1,-2,-8,-4,-1,-1,-1
1461661897385480,0,-4,-2,7,5,3,-1,0
1461661897385480,-4,-4,-2,2,-1,0,-2,-1
1461661897392512,1,5,7,4,1,1,-1,0
1461661897392512,-2,-1,0,-5,-5,-2,0,-1
1461661897408514,0,2,5,4,4,2,-3,-2
1461661897408514,0,-7,-17,-8,-2,-1,1,-1
1461661897409493,-1,1,5,2,-1,-2,-1,-1
1461661897409493,2,0,1,-1,1,-1,-3,-1
1461661897424507,-1,0,-4,-6,-3,-1,-1,-1
1461661897424507,0,4,2,-7,-3,-2,-1,0
1461661897430691,2,3,6,13,4,2,-1,-1
1461661897430691,-5,-7,-6,-5,-1,-2,-2,-4
1461661897454674,-2,-3,-12,3,-1,0,-1,-3
1461661897454674,1,2,18,-2,0,-1,-2,-1
1461661897455649,1,2,2,-2,5,3,2,3
1461661897455649,0,-1,0,6,-2,0,0,-1
1461661897475660,-1,0,3,-9,-4,-4,-1,-1
1461661897475660,-3,-7,-9,6,1,-1,-2,-2
1461661897476660,0,0,4,0,-2,-2,1,0
1461661897476660,-1,3,0,-4,-2,0,-1,-2
1461661897484666,-3,-2,-4,-7,-5,-3,0,-1
1461661897484666,3,2,2,2,-1,-2,-1,0
1461661897490669,-2,-1,-6,-2,-2,-2,-2,0
1461661897490669,1,6,-7,-2,-2,0,-2,-1
1461661897505678,-2,-5,-3,-4,-2,-2,-1,-4
1461661897505678,0,5,0,-7,-6,-2,0,0
1461661897512686,0,-4,0,-8,-5,-1,-1,-2
1461661897512686,-1,-5,-5,13,7,-2,-1,-1
1461661897528698,-1,7,11,-7,1,-2,-1,0
1461661897528698,-7,-13,0,11,0,0,0,-1
1461661897529696,6,2,-8,-14,-4,-1,0,1
1461661897529696,-4,-7,-2,-7,0,0,-1,-2
1461661897544722,2,0,-2,-2,-2,0,-1,-1
1461661897544722,-1,-5,-2,-12,-5,-1,-2,-2
1461661897550710,1,0,-2,13,6,-1,2,2
1461661897550710,-2,1,5,5,1,-1,-2,-2
1461661897566737,3,5,-1,-7,-4,-1,-1,-2
1461661897566737,-3,-8,-8,-8,-2,-2,-4,-2
1461661897572785,-1,-1,1,23,5,0,-1,-2
1461661897572785,4,14,1,1,1,-1,-1,-2
1461661897588743,-6,-17,-4,6,0,1,-2,-3
1461661897588743,5,11,-4,-4,-2,0,0,1
1461661897589753,-5,-3,-8,-20,-10,-5,-2,-4
1461661897589753,-3,-9,-4,-1,-1,0,0,0
1461661897604765,-1,4,8,-1,-7,-3,-1,-1
1461661897604765,2,3,-1,8,11,-1,-1,1
1461661897618788,-2,-3,2,0,-1,-2,-4,-2
1461661897618788,-2,-10,-3,-14,-5,-1,2,0
1461661897625797,-3,-2,-10,-26,-6,-1,-2,-3
1461661897625797,0,-4,12,33,6,1,2,1
1461661897632771,4,3,2,8,10,3,3,4
1461661897632771,-2,0,4,-4,-7,-5,-3,-4
1461661897648782,-3,-6,-5,9,8,2,-4,-1
1461661897648782,4,4,-4,-26,-13,-4,-2,0
1461661897649783,-5,-5,-3,11,10,5,2,0
1461661897649783,-2,0,2,10,-1,-2,-3,-3
1461661897664792,-4,-3,0,2,-4,-4,-1,-2
1461661897664792,4,7,0,-18,-4,-4,-2,0
1461661897670801,3,4,6,13,3,2,7,0
1461661897670801,-3,-11,-8,-12,-4,2,-1,-2
1461661897685813,-3,-2,2,10,3,-3,-8,0
1461661897685813,-1,4,-6,-6,-4,-5,-9,-5
1461661897692819,3,2,-3,-24,-12,-4,-9,-3
1461661897692819,1,-1,-4,0,4,-1,3,4
1461661897708837,-1,0,2,-1,-6,-8,-5,-2
1461661897708837,0,1,-1,9,5,3,5,1
1461661897708837,1,-7,-1,-16,-7,-1,1,1
1461661897708837,-1,-3,-6,1,0,2,-2,-6
1461661897723847,1,13,9,15,6,2,3,1
1461661897723847,-2,-6,8,20,10,4,3,4
1461661897729852,-2,-2,-17,-3,-1,-2,-2,-3
1461661897729852,-1,2,13,-24,-10,-3,-3,-3
1461661897744906,3,1,-9,10,10,4,8,3
1461661897744906,-9,-6,-7,21,-4,-7,-8,-7
1461661897752893,-3,-12,7,10,2,-1,-1,-1
1461661897752893,-5,-2,-4,-21,-10,-8,-3,-5
1461661897768879,0,-1,-7,-7,-4,1,7,-2
1461661897768879,7,0,-5,-17,-4,4,2,7
1461661897768879,2,3,-6,-17,-10,-5,1,-1
1461661897768879,-13,-6,-7,8,2,-9,-6,-9
1461661897783892,-3,-1,4,-12,-4,2,-5,-1
1461661897783892,1,4,-6,-6,1,4,-8,-1
1461661897789917,0,-9,-1,-4,-6,-11,-19,-2
1461661897789917,1,5,5,1,-2,3,3,-1
1461661897804920,-10,-16,-11,-15,-2,-4,3,-3
1461661897804920,2,3,0,-14,-18,-12,-11,0
1461661897812926,8,-13,-13,-13,5,3,10,6
1461661897812926,-9,13,22,23,4,5,2,0
1461661897827909,-1,-3,-7,12,9,9,23,4
1461661897827909,0,1,11,2,-6,-3,-14,-1
1461661897829928,9,14,3,10,2,-3,1,-3
1461661897829928,0,-3,-20,4,4,0,4,-2
1461661897843937,0,-4,-1,-7,-5,-1,4,1
1461661897843937,-7,-12,-9,-18,3,3,3,-3
1461661897849925,-4,7,5,11,-7,0,7,-4
1461661897849925,5,-10,-3,4,7,6,-12,1
1461661897864933,-7,17,5,-20,-10,-2,-6,3
1461661897864933,-5,-6,-3,44,13,-5,7,3
1461661897872996,-2,9,9,-7,-9,-8,10,3
1461661897872996,5,4,-1,-23,-10,-3,-6,-4
1461661897887960,2,-9,-9,26,10,-9,-33,-2
1461661897887960,-4,-13,-8,-28,-8,2,-5,-9
1461661897888971,0,-14,-3,5,-2,1,2,-7
1461661897888971,-10,10,1,-29,-3,-1,-2,-3
1461661897903978,0,6,7,52,19,6,26,-1
1461661897903978,13,13,22,4,2,5,4,8
1461661897918975,4,-1,1,7,8,-4,-6,3
1461661897918975,-4,-20,-2,-42,-23,-1,2,7
1461661897925033,-12,-31,-30,4,3,2,-28,-10
1461661897925033,4,-9,9,12,2,-3,7,2
1461661897932992,-5,-39,4,-2,8,20,-3,-6
1461661897932992,-2,-34,-11,10,-1,1,59,0
1461661897948993,10,-18,18,-32,-20,-26,-54,11
1461661897948993,-22,-41,-18,-4,-7,-20,-14,-10
1461661897955010,5,-23,-5,-9,-4,2,21,-3
1461661897955010,-20,-13,6,-3,1,17,43,-10
1461661897964019,-12,-11,-33,-23,-8,12,32,5
1461661897964019,18,12,6,31,11,-13,-53,7
1461661897970064,0,24,9,-23,-18,-27,-56,-10
1461661897970064,8,31,-33,4,12,9,2,-1
1461661897985018,6,34,29,2,3,14,58,7
1461661897985018,-1,5,9,31,13,25,26,4
1461661898001028,-7,64,-18,-28,-5,-18,-49,-7
1461661898001028,4,22,9,56,17,-13,-56,-8
1461661898008036,0,46,-16,-63,-32,-15,-14,-21
1461661898008036,10,59,11,-37,-13,1,32,13
1461661898009036,-14,-4,11,50,21,24,47,12
1461661898009036,9,42,-24,-53,-30,-7,41,9
1461661898024063,-38,-71,-14,28,6,-8,-64,-18
1461661898024063,23,1,-9,-23,-11,-12,19,-6
1461661898038055,-1,-12,-4,-5,3,9,-43,-2
1461661898038055,-16,-9,17,4,-2,-23,-51,-8
1461661898053082,6,-28,-9,-30,-16,3,28,-2
1461661898053082,-5,0,14,39,21,15,43,5
1461661898054069,24,-4,-19,-22,-1,11,18,14
1461661898054069,-8,-13,8,22,-7,-1,26,9
1461661898068095,-2,-7,8,4,9,-15,-59,-8
1461661898068095,-6,-23,0,14,-8,-8,3,-4
1461661898069076,-23,-11,-2,-23,-7,4,-16,-21
1461661898069076,-6,-47,16,50,15,4,-6,-8
1461661898084086,17,-32,17,25,8,0,26,11
1461661898084086,7,-70,-14,-48,-19,9,40,9
1461661898090150,5,-48,-4,-20,-11,-5,12,4
1461661898090150,-19,5,20,38,12,-7,-32,-5
1461661898105131,-2,47,-13,-78,-26,-1,72,4
1461661898105131,21,48,31,95,45,16,-77,1
1461661898113137,-7,3,-10,-73,-31,-28,0,-5
1461661898113137,1,-74,-24,1,4,2,-15,-12
1461661898128136,-31,-38,18,27,6,5,-14,-11
1461661898128136,-15,49,-17,-40,-6,2,24,-15
1461661898129138,33,65,-1,-55,-22,27,47,18
1461661898129138,34,123,28,67,38,-16,-63,21
1461661898145148,2,74,-13,23,4,-30,-31,8
1461661898145148,-12,60,-30,-55,-25,-7,-9,-12
1461661898150197,-3,44,17,37,8,3,3,-9
1461661898150197,28,-104,5,1,18,29,62,2
1461661898165159,-1,-70,13,-16,-15,29,-31,-7
1461661898165159,-29,-28,-25,-26,-15,-44,-37,-10
1461661898173209,18,27,-9,-11,-14,-24,18,16
1461661898173209,7,120,-21,-43,-4,18,28,21
1461661898188169,-5,66,-4,56,25,20,7,-19
1461661898188169,20,98,25,-18,-12,3,20,-5
1461661898195174,-20,-115,-17,-16,8,7,26,9
1461661898195174,-7,127,-25,-9,-18,1,-24,-14
1461661898204179,-6,94,0,7,-9,-32,-72,-22
1461661898204179,-3,-45,1,6,2,-13,16,-3
1461661898210184,4,-72,9,42,13,-8,-30,-4
1461661898210184,-14,-128,5,-34,-2,9,49,11
1461661898225189,17,-128,-5,-33,-12,26,95,22
1461661898225189,10,-127,-12,0,9,19,1,-7
1461661898233195,7,-91,10,37,3,-28,-76,-11
1461661898233195,-13,-126,-12,-127,-69,-20,-51,-11
1461661898249204,16,-56,60,87,98,51,61,5
1461661898249204,4,-76,-11,-33,4,-3,-5,11
1461661898255208,3,-47,-11,-48,-31,-19,20,11
1461661898255208,-16,-40,50,53,10,-2,-1,3
1461661898279227,-6,-31,-30,-30,-7,7,0,-15
1461661898279227,-17,-50,-52,-19,0,27,26,-26
1461661898280229,-14,-1,39,-27,-30,16,3,27
1461661898280229,-4,-33,-49,93,84,-12,-79,-27
1461661898285232,20,-78,37,-38,-25,-54,-34,12
1461661898285232,9,79,26,7,12,1,-61,-26
1461661898293254,-46,73,-25,-53,-14,14,103,17
1461661898293254,27,-75,-11,-7,-8,37,58,44
1461661898308245,-58,-79,-6,1,-17,-37,-49,-9
1461661898308245,14,60,-6,-52,-38,-20,-82,-4
1461661898315252,1,127,-7,68,33,-22,-38,-26
1461661898315252,-11,-62,-15,-48,-25,-22,24,-15
1461661898338266,-14,-58,7,-16,3,11,-5,-16
1461661898338266,37,40,32,69,7,-18,28,28
1461661898339267,32,119,-24,-25,-3,7,-22,-1
1461661898339267,-26,-48,30,99,48,20,-6,8
1461661898346284,-22,-57,-41,-101,-37,17,32,-20
1461661898346284,-9,54,61,59,19,30,12,-16
1461661898352289,41,79,-2,104,51,-5,-26,15
1461661898352289,22,-34,-10,-61,-26,-26,-12,17
1461661898367326,17,2,-36,-62,-26,23,17,1
1461661898367326,-71,39,20,-102,-31,-25,42,-3
1461661898375331,8,62,15,104,76,29,33,24
1461661898375331,14,-15,27,-30,-21,-26,-32,6
1461661898399309,-20,11,2,20,9,34,58,8
1461661898399309,13,29,-28,-55,-27,-11,-32,-20
1461661898400310,-26,60,2,7,-12,-40,-76,-28
1461661898400310,16,-7,-10,-5,-14,-26,25,19
1461661898405314,16,-23,-2,-66,-20,22,60,-2
1461661898405314,8,30,18,49,34,50,1,-9
1461661898413343,-9,43,-20,-33,-16,-18,3,25
1461661898413343,15,-4,-24,-70,-32,19,50,16
1461661898428354,-58,-13,-33,121,51,-17,-56,-31
1461661898428354,-37,26,9,-8,-35,-45,-53,-1
1461661898435336,1,35,-46,31,30,32,71,-3
1461661898435336,-37,5,61,16,1,26,3,-9
1461661898451346,-12,2,-20,-32,-15,-25,-93,-10
1461661898451346,62,20,-41,45,53,-6,17,34
1461661898451346,1,31,-29,-107,-66,26,56,-4
1461661898451346,2,8,34,63,56,-11,-32,-12
1461661898483383,40,9,37,-16,-4,-24,5,2
1461661898483383,-31,18,1,12,6,40,5,-31
1461661898484385,44,27,14,-49,-23,-34,17,33
1461661898484385,13,10,-32,-66,-49,-40,-53,-6
1461661898487387,2,14,28,6,10,0,13,-18
1461661898487387,-3,20,-15,42,24,47,41,-39
1461661898495438,-35,27,-8,-57,-50,-26,-53,-55
1461661898495438,4,9,-13,44,10,-12,1,12
1461661898511456,-12,17,-32,-65,-24,-27,-46,-26
1461661898511456,-2,20,12,65,37,10,66,-6
1461661898511456,-4,24,79,27,11,23,-13,-10
1461661898511456,-20,10,-10,-68,-29,-8,-25,-10
1461661898535408,55,23,74,127,68,25,-14,12
1461661898535408,-35,20,-42,-68,-7,19,54,16
1461661898536414,-17,22,23,-65,-35,-3,33,34
1461661898536414,16,13,-64,74,35,-5,-78,-25
1461661898556423,16,26,46,60,15,-45,5,46
1461661898556423,55,18,18,-59,-20,-32,19,37
1461661898556423,-29,21,43,72,52,22,-28,-10
1461661898556423,-22,13,-23,-74,-58,-25,18,18
1461661898571434,-13,33,-27,-49,-27,34,16,-10
1461661898571434,-29,19,-8,34,1,-11,-32,2
1461661898571434,45,20,-7,-30,-8,-18,3,14
1461661898571434,-9,14,-28,-127,-67,30,20,4
1461661898586460,31,24,18,111,92,55,16,7
1461661898586460,-8,19,-31,-114,-32,-21,2,16
1461661898592464,-3,18,8,-65,-55,-8,-34,-16
1461661898592464,35,14,26,45,49,29,28,18
1461661898607469,-56,24,26,-115,-68,-35,-3,-16
1461661898607469,-54,18,-79,65,52,19,-18,-13
1461661898615462,33,16,-11,-11,8,25,13,17
1461661898615462,-25,15,-34,-6,2,-10,67,-18
1461661898630532,46,35,-7,-4,-8,19,-56,17
1461661898630532,50,19,23,-30,-36,-85,-48,25
1461661898631475,-9,16,-4,24,14,11,47,-8
1461661898631475,-2,16,16,29,21,36,5,-12
1461661898646501,-4,28,-13,-16,-20,-38,16,21
1461661898646501,-1,18,10,-20,-23,18,-52,-15
1461661898652501,25,14,-22,39,4,-57,-43,-10
1461661898652501,-20,14,26,-125,-54,8,29,-1
1461661898667570,-17,28,-32,25,61,53,40,-18
1461661898667570,6,19,82,32,4,-9,-16,-2
1461661898675576,-19,11,-40,71,54,23,3,5
1461661898675576,-13,15,-22,12,15,13,-7,-8
1461661898691518,-11,29,-37,-126,-88,-46,-19,-16
1461661898691518,37,18,67,87,64,28,28,15
1461661898691518,-3,12,7,-40,-20,3,-12,4
1461661898691518,6,14,-3,-29,-4,-16,5,14
1461661898706527,11,22,-22,6,0,36,44,-9
1461661898706527,18,18,-12,-54,-28,-12,-32,9
1461661898712533,-30,14,10,11,-3,-64,-39,7
1461661898712533,28,14,33,47,8,-26,-27,5
1461661898727542,-18,26,11,9,1,18,8,-19
1461661898727542,16,18,-21,-27,-7,54,57,-19
1461661898735547,6,11,11,-4,-24,-44,-36,30
1461661898735547,1,13,-1,10,2,-15,-4,0
1461661898752560,-31,18,-2,3,6,18,13,-21
1461661898752560,-13,16,-61,-118,-51,8,-2,-14
1461661898753560,9,10,22,92,67,28,9,3
1461661898753560,-3,14,12,-20,-5,-5,-12,-9
1461661898766569,0,33,-29,3,1,-27,-32,-9
1461661898766569,21,17,28,57,12,-13,-4,18
1461661898772574,14,12,19,-62,-20,1,9,-1
1461661898772574,-40,14,7,-45,-44,-9,-15,-23
1461661898787585,-15,39,-50,73,50,5,0,-3
1461661898787585,-15,19,-20,-34,-20,-26,-5,5
1461661898795649,-10,17,-9,-13,-9,15,-10,-8
1461661898795649,6,12,5,19,16,37,39,6
1461661898810604,-35,37,13,-35,-24,-39,-28,9
1461661898810604,22,19,5,15,-5,-32,-47,-11
1461661898812618,3,-128,-4,2,9,-13,-11,12
1461661898812618,-25,-1,2,-2,0,3,-10,-8
1461661898826630,23,1,-6,-11,-7,37,26,-8
1461661898826630,-38,-43,2,25,17,27,36,7
1461661898832632,22,15,-8,-29,-21,9,26,-1
1461661898832632,-6,127,-19,2,-13,-25,-19,-8
1461661898847658,11,127,6,-39,-11,-25,-10,-2
1461661898847658,-5,33,36,0,30,2,-5,3
1461661898863669,0,-3,-21,63,18,2,-1,0
1461661898863669,7,119,10,33,23,-4,-6,-10
1461661898872661,7,117,36,20,-8,-11,-13,-8
1461661898872661,-12,-15,-43,-54,-37,-7,2,0
1461661898873662,-18,-38,-18,-44,-22,5,-1,-11
1461661898873662,13,84,5,16,12,10,-27,1
1461661898886658,-1,55,10,1,-4,14,47,2
1461661898886658,-1,-41,-4,-10,1,7,-28,15
1461661898892674,-2,-34,3,2,2,-26,-16,-3
1461661898892674,-23,63,-5,10,8,-6,-23,-17
1461661898907729,5,23,2,-6,-14,-16,-24,-6
1461661898907729,0,-35,-11,4,-8,-4,15,-1
1461661898915706,2,-9,-3,-13,-7,41,35,0
1461661898915706,0,36,-15,-62,-19,-6,3,-4
1461661898930700,7,9,21,66,28,2,1,7
1461661898930700,6,-19,7,21,-1,-7,14,0
1461661898931686,-5,-15,13,-3,2,3,-7,3
1461661898931686,-2,18,-7,17,19,-4,6,-4
1461661898963725,4,9,-6,-20,-5,-5,-9,-4
1461661898963725,-1,-11,-1,8,-9,-12,-7,-1
1461661898963725,1,-16,4,-21,-11,-5,6,8
1461661898963725,-14,14,-7,13,5,7,-12,-18
1461661898967770,1,15,0,-4,-5,-10,-13,-11
1461661898967770,2,-12,-10,-9,-9,-14,15,33
1461661898975781,-3,-15,-2,-17,-6,-2,0,-29
1461661898975781,13,13,4,21,13,5,0,42
1461661898990787,2,8,-5,-5,-12,21,-12,5
1461661898990787,-12,-13,2,-10,-6,3,16,-22
1461661898991732,-9,-10,4,10,8,40,17,-7
1461661898991732,-17,12,-12,-12,-10,-3,21,-14
1461661899006845,9,53,-2,-18,-4,-18,-17,2
1461661899006845,6,76,12,22,21,-7,-1,6
1461661899012893,-2,96,12,20,18,-3,-1,-7
1461661899012893,-5,80,4,-7,-2,-6,-12,-26
1461661899027903,13,37,-17,5,-12,-20,15,44
1461661899027903,-12,12,-12,5,-3,-2,-21,-23
1461661899034848,-19,31,7,-8,-5,-6,-9,-25
1461661899034848,0,31,7,1,3,2,-17,-12
1461661899050859,17,32,32,-9,-8,-11,11,19
1461661899050859,0,29,-9,-1,-1,-6,-7,11
1461661899051860,-24,-11,-10,-3,1,-8,1,-8
1461661899051860,2,-11,-6,2,0,24,-2,-16
1461661899066873,13,-33,-5,-2,-1,-13,4,13
1461661899066873,3,-41,0,1,1,49,10,17
1461661899072934,-10,-36,4,-1,3,-4,10,-10
1461661899072934,-4,-26,-6,5,-3,20,20,-12
1461661899087898,13,-28,-9,3,5,-16,2,16
1461661899087898,-3,-35,-3,-2,-5,3,0,7
1461661899094951,-14,-31,-15,-8,-5,-6,-10,-13
1461661899094951,0,-24,9,6,2,-13,-7,-11
1461661899110966,7,-3,2,-5,-6,0,-4,7
1461661899110966,-1,27,2,0,-3,-13,-2,2
1461661899111912,-5,14,-7,0,4,10,-8,-10
1461661899111912,2,8,11,10,2,-10,0,-7
1461661899126948,7,-8,-7,-4,-7,0,-2,6
1461661899126948,-9,-46,-23,-18,-6,-10,0,-1
1461661899132921,-2,-14,-1,2,4,10,-3,-8
1461661899132921,-7,-15,8,0,1,-7,-2,-8
1461661899147932,6,-4,16,4,-3,-4,-3,7
1461661899147932,-2,-12,6,3,-1,-4,-1,0
1461661899154935,-4,-9,-7,-2,-2,4,-1,-8
1461661899154935,1,-10,-10,-2,-4,-7,0,-3
1461661899170944,0,-16,-6,-3,-2,-1,-1,6
1461661899170944,-1,-4,-4,-5,-4,-4,6,11
1461661899171945,-5,-15,-4,-6,-1,4,-20,-29
1461661899171945,3,-6,-2,4,2,3,3,1
1461661899194962,5,-12,0,-3,-3,-2,-5,5
1461661899194962,0,-11,4,-1,2,0,3,3
1461661899195963,-3,-7,1,-1,3,10,4,3
1461661899195963,3,0,-7,2,-1,-8,-4,-3
1461661899207972,4,4,-7,0,-3,-2,-2,4
1461661899207972,2,3,19,-1,0,-1,3,3
1461661899215977,-3,-9,1,-1,0,-4,-2,-2
1461661899215977,1,-3,1,3,-2,-4,-3,-4
1461661899231988,3,-6,-12,-3,-2,-2,2,6
1461661899231988,0,2,2,-2,-2,-4,-1,-3
1461661899237992,-4,-10,-3,-2,0,0,0,0
1461661899237992,-2,-9,-2,-2,-2,-5,-4,-7
1461661899246998,1,0,-6,-2,-1,-5,-1,3
1461661899246998,-1,-1,-5,-1,0,-1,1,6
1461661899261008,-3,-2,11,-4,2,2,1,-1
1461661899261008,-1,-19,-16,-1,1,-4,-1,1
1461661899268013,4,-7,8,-4,-2,-1,-1,-1
1461661899268013,-1,-13,7,2,2,1,-1,-7
1461661899275018,-3,-17,-14,-7,-3,0,2,2
1461661899275018,2,-4,9,14,3,-4,0,-1
1461661899290030,2,-9,-12,-9,-4,-1,-1,1
1461661899290030,-1,-5,7,7,3,0,-1,0
1461661899298044,3,-3,-3,-3,-4,-1,-2,-1
1461661899298044,0,-9,-4,-4,-1,-2,-2,-2
1461661899307041,0,-11,-4,-4,-2,-1,-1,3
1461661899307041,-7,-2,3,-3,-3,-1,-2,-2
1461661899313046,-4,-1,-2,-2,-2,-1,-1,-3
1461661899313046,1,-1,-1,-4,-3,-1,0,-1
1461661899328056,0,-2,-2,3,2,1,1,4
1461661899328056,0,-3,-3,-5,-2,-2,-2,-2
1461661899335060,-5,-1,3,2,1,-1,1,-2
1461661899335060,1,-1,-4,4,-1,-1,0,-2
1461661899350071,-1,-3,-3,-11,-3,-1,-2,0
1461661899350071,0,0,3,16,3,2,-1,2
1461661899358077,-4,2,-11,-8,-5,1,1,-2
1461661899358077,0,-2,-6,-11,-5,-3,-1,0
1461661899367084,-1,-4,7,7,-2,-2,-2,-2
1461661899367084,-1,3,5,3,3,1,-1,0
1461661899373091,-1,6,18,5,0,-2,-1,-2
1461661899373091,-1,-1,-5,-5,-2,-1,-1,-3
1461661899388110,1,3,-5,-6,-1,0,-1,3
1461661899388110,-1,-2,-14,-10,-4,-5,-1,2
1461661899395163,-2,-5,-7,1,-1,-2,0,-2
1461661899395163,-2,0,-4,-4,-1,-2,-1,0
1461661899410172,-2,1,1,4,0,2,0,-3
1461661899410172,0,0,1,1,-1,-1,-1,-2
1461661899418178,-3,0,-2,-2,-3,0,-3,0
1461661899418178,2,2,5,3,-1,-4,-1,1
1461661899433130,2,8,4,6,2,1,2,1
1461661899433130,-3,-7,-8,-2,-1,-1,-2,-6
1461661899434130,-1,1,1,0,-3,-3,-2,-2
1461661899434130,-3,-1,1,1,-1,-1,-1,1
1461661899448141,0,0,2,3,0,-1,-2,-1
1461661899448141,0,0,-6,-5,-4,-1,0,-3
1461661899455160,-2,-2,0,-1,0,-1,-2,1
1461661899455160,-1,-2,-2,-3,-1,-2,-1,1
1461661899470214,0,1,0,-4,0,-3,0,-3
1461661899470214,0,-2,-14,3,0,-1,0,-3
1461661899478219,-4,-2,1,-12,-7,-4,-2,-3
1461661899478219,-2,3,8,8,2,2,0,1
1461661899493322,0,5,1,-1,0,-1,-1,0
1461661899493322,-2,-3,-6,-3,0,-1,-1,-3
1461661899494267,-1,1,-7,-1,-2,-1,0,-1
1461661899494267,-2,0,-2,-6,-3,-2,-2,-1
1461661899508340,0,-1,-3,0,0,-1,1,0
1461661899508340,2,4,2,-1,-1,-1,-1,0
1461661899515393,-2,-5,-1,2,1,-1,-1,0
1461661899515393,-3,-2,1,-2,-3,-3,-4,-1
1461661899530439,1,-5,-2,1,0,3,1,0
1461661899530439,-1,2,3,-6,-4,-3,-2,-1
1461661899537384,-3,0,0,4,2,2,-2,-3
1461661899537384,-1,-2,-3,-5,-1,-1,-3,0
1461661899553396,-1,-5,-1,-2,-4,-3,-1,-1
1461661899553396,1,4,3,-7,-3,-3,0,1
1461661899554397,-2,-1,-2,3,1,-2,-2,-3
1461661899554397,-1,-4,-1,15,1,-1,-1,0
1461661899569408,-3,-3,3,11,8,2,1,-1
1461661899569408,1,-5,-4,4,1,-1,1,1
1461661899575472,-1,1,2,-3,-3,-3,-1,-1
1461661899575472,-1,0,-3,-11,-2,-2,0,-1
1461661899590482,-2,-1,-3,-5,-4,-2,-3,-2
1461661899590482,-3,-1,-1,-3,-4,0,-1,-1
1461661899597486,-4,0,-6,-3,0,-1,-1,-1
1461661899597486,-2,1,-1,-2,-3,-1,-2,-1
1461661899613498,1,2,0,-1,-2,0,1,-1
1461661899613498,-2,-2,-1,0,1,-1,-2,-1
1461661899614440,-2,0,-3,0,1,0,-2,-2
1461661899614440,0,0,0,0,-1,-1,-1,-2
1461661899627520,-1,-1,-2,-1,-2,-2,-1,1
1461661899627520,1,3,7,4,1,1,1,0
1461661899635456,-3,-7,-4,2,2,2,-1,0
1461661899635456,-1,-1,-1,-2,-2,-2,1,-2
1461661899650466,3,4,3,-1,-3,-1,-1,0
1461661899650466,-3,-3,-2,-4,0,-1,0,0
1461661899666476,-3,-2,1,-2,-1,-3,-1,0
1461661899666476,-1,-2,-4,-9,-4,-2,-1,-1
1461661899673481,2,-2,-6,1,0,-2,-1,0
1461661899673481,3,2,7,5,0,-2,0,0
1461661899674482,-1,-1,3,20,9,2,0,-2
1461661899674482,-1,0,1,-2,0,-1,-2,-2
1461661899687503,-1,-2,-1,-3,-3,0,-1,-3
1461661899687503,-3,-2,-6,-10,-3,0,-2,-2
1461661899695556,0,-1,-2,-6,-5,-3,0,-2
1461661899695556,1,-1,1,2,-2,-3,-2,-1
1461661899710566,-1,-2,2,-2,-1,0,-1,-1
1461661899710566,-3,-9,-7,-5,-1,-1,0,-2
1461661899717512,1,2,0,1,0,-1,-2,-3
1461661899717512,-3,0,0,0,0,0,1,-2
1461661899733536,2,3,4,-1,-2,-1,-1,0
1461661899733536,-2,1,-6,3,2,0,-1,-1
1461661899734542,-2,-6,-6,-7,-5,-2,-2,-2
1461661899734542,-1,-1,1,-2,-2,-2,-2,-3
1461661899747598,-2,-4,-3,-4,-2,0,0,-1
1461661899747598,-1,2,0,1,1,0,0,0
1461661899755568,-2,-1,-6,-4,-3,0,-1,-3
1461661899755568,0,0,3,-1,0,-1,-1,-1
1461661899770557,1,2,9,10,3,-1,-1,1
1461661899770557,-4,-7,-13,-18,-6,-2,-2,-3
1461661899777571,-2,2,8,6,2,0,-2,-1
1461661899777571,0,-2,-2,1,6,4,0,0
1461661899793568,-2,-2,-4,2,-1,-1,-1,-1
1461661899793568,1,3,6,2,-2,1,-1,0
1461661899794569,-2,-3,-5,-3,-2,-1,-1,0
1461661899794569,0,0,-4,-3,-2,-3,-2,-1
1461661899807637,0,-3,-4,-8,-1,-2,0,1
1461661899807637,0,3,0,0,-1,-1,0,-1
1461661899815583,-1,2,-1,-8,-4,-3,-1,-3
1461661899815583,-1,-4,-3,2,-2,0,-2,-2
1461661899830654,0,-2,-2,-1,-1,0,1,-1
1461661899830654,1,-1,3,6,1,-1,-1,1
1461661899837604,-2,0,-1,-1,-2,-2,-2,-3
1461661899837604,0,-1,-2,-3,-2,-1,-2,-1
1461661899861614,0,0,-1,-1,-1,0,-1,0
1461661899861614,0,-1,3,3,-1,-2,0,0
1461661899862615,-1,1,2,-6,-3,-1,-3,0
1461661899862615,-1,-3,-9,-8,-5,-4,-1,-2
1461661899875624,-4,-6,-4,2,-1,-2,-1,-2
1461661899875624,0,0,2,2,2,0,1,-1
1461661899876625,-2,-2,-1,-2,1,2,-1,-2
1461661899876625,1,1,8,8,5,1,1,1
1461661899898681,1,1,-4,-3,0,0,-2,1
1461661899898681,-2,-1,2,-1,-2,-3,-4,-3
1461661899899643,-2,-1,-2,-4,-2,-2,-2,-1
1461661899899643,-3,-1,-3,-3,-2,-2,-1,-1
1461661899913709,0,1,-1,1,0,-1,-1,-1
1461661899913709,-1,-2,0,0,0,0,-1,-1
1461661899914652,-2,-2,-6,-2,-2,-1,0,-5
1461661899914652,1,-1,-2,-1,-1,-2,-1,-1
1461661899927724,0,0,-6,-10,-1,-1,-1,0
1461661899927724,-1,-1,4,9,-2,-2,-1,-1
1461661899935697,0,-1,2,9,4,-1,0,-1
1461661899935697,0,-2,2,2,-1,-1,-1,0
1461661899950707,0,0,-3,-2,-3,-1,-1,1
1461661899950707,-1,1,-5,-11,-3,-1,1,1
1461661899957702,-4,-4,-4,-5,-3,-3,-3,-3
1461661899957702,3,1,0,4,-1,-1,-1,-1
1461661899974715,-1,1,1,-3,0,-1,0,0
1461661899974715,-1,0,0,1,0,0,2,0
1461661899975699,-1,1,-2,-1,-1,-1,-2,-2
1461661899975699,-4,-5,-6,-4,-2,-3,-3,-3
1461661899987715,-1,-2,0,0,-2,-2,-1,-2
1461661899987715,-1,-2,0,2,2,-2,-2,0
1461661899995748,-4,-2,-2,-6,-4,-2,0,-1
1461661899995748,1,0,-2,-2,-1,0,0,-1
1461661900010759,1,-1,-1,-3,-2,-2,-1,1
1461661900010759,-2,-4,-2,1,-1,-3,-1,-2
1461661900017777,-1,-3,-8,-9,-1,0,0,0
1461661900017777,-3,1,2,3,-1,-3,-1,-1
1461661900033788,1,-1,-2,-7,0,-1,-1,0
1461661900033788,1,2,5,18,3,2,1,2
1461661900033788,-4,-2,-4,-10,-5,-2,-3,-3
1461661900033788,0,1,-2,-4,-1,-2,1,0
1461661900047800,0,3,4,6,2,0,1,2
1461661900047800,0,-1,-4,-13,-4,-1,-1,-1
1461661900063838,-4,-5,-2,5,-1,-1,-2,-3
1461661900063838,-1,-1,-4,-3,-1,-1,-1,-1
1461661900070815,-2,-1,-1,1,-2,1,-2,-2
1461661900070815,2,3,1,-4,0,0,0,0
1461661900077836,1,1,1,5,1,-1,-2,0
1461661900077836,0,-1,0,-3,0,0,-1,-1
1461661900093847,1,4,0,3,0,1,1,1
1461661900093847,-3,-1,-4,-1,-1,0,-3,-1
1461661900093847,-2,-3,1,-5,-6,-2,-1,-2
1461661900093847,0,-1,0,10,4,0,1,-1
1461661900107899,-2,-3,-1,1,3,0,0,-1
1461661900107899,-1,0,1,-7,-2,0,-1,0
1461661900115861,-2,-2,-3,7,3,0,-3,-2
1461661900115861,1,-1,2,3,3,1,-1,1
1461661900130858,1,0,2,8,4,1,1,0
1461661900130858,-2,-1,-3,-4,-1,-1,0,0
1461661900145887,-3,-4,-2,-15,-7,-3,-2,-3
1461661900145887,0,-2,5,8,2,0,0,-1
1461661900152872,2,0,2,2,1,1,-1,1
1461661900152872,-3,-4,-2,-7,-4,-2,-2,0
1461661900160936,-1,1,-4,-4,-2,-2,-3,-2
1461661900160936,-1,-1,-1,-5,-4,-3,-2,1
1461661900167941,-2,-2,-4,-5,-5,-2,-2,0
1461661900167941,-1,0,1,3,0,-1,-2,-1
1461661900175890,-4,-1,-1,2,1,-1,-2,-3
1461661900175890,0,-1,-1,-4,-3,0,-1,-1
1461661900190901,1,3,2,3,0,-1,-1,2
1461661900190901,-3,-6,-6,-6,-3,-2,-1,-1
1461661900197905,-3,-2,-1,1,0,0,-2,-3
1461661900197905,-2,-1,1,-5,-3,0,-2,-3
1461661900212973,1,0,0,-1,-3,-2,0,1
1461661900212973,-3,0,1,4,1,0,-2,-2
1461661900220979,-2,-3,-8,-13,-5,-2,-1,-2
1461661900220979,0,-4,-6,3,1,1,0,2
1461661900227983,-1,0,5,-4,-5,-1,-2,-1
1461661900227983,0,0,-2,16,7,3,0,0
1461661900234942,-3,-2,2,-6,-2,-1,-2,-2
1461661900234942,3,3,6,7,0,-3,0,-2
1461661900251955,1,-4,-8,-5,-2,0,-1,0
1461661900251955,0,-2,0,-3,-3,-1,-1,-1
1461661900257946,-1,0,2,6,2,-1,-2,-1
1461661900257946,-1,-2,-2,-6,-5,-3,-1,-2
1461661900281964,-2,-1,1,3,0,0,-1,0
1461661900281964,-1,-1,-3,-4,-2,-1,0,1
1461661900281964,-1,-1,-2,2,0,-2,0,-2
1461661900281964,0,3,1,-3,-3,-1,0,-1
1461661900287968,-1,-3,-4,-2,-1,-1,-1,-1
1461661900287968,-2,-1,0,-4,-3,-2,-1,-2
1461661900294973,-1,-1,0,0,-1,-2,-1,-1
1461661900294973,1,1,-1,-1,-3,-1,-2,1
1461661900309984,0,1,-2,-4,0,1,-1,-2
1461661900309984,1,-1,0,0,-2,1,-1,0
1461661900317989,-1,0,2,6,-1,0,-1,-3
1461661900317989,0,-3,0,-7,-3,-4,-2,-2
1461661900332999,-1,-2,-11,-4,-1,-2,1,0
1461661900332999,-2,-1,2,7,2,0,-1,-1
1461661900340005,-3,-4,-4,-5,-5,-2,-4,-3
1461661900340005,3,1,2,-2,-3,-2,-1,0
1461661900356016,-1,-1,2,0,-2,-2,-1,-1
1461661900356016,-2,-1,-4,-10,-4,-3,-2,-2
1461661900357016,-2,-1,1,7,0,2,0,-2
1461661900357016,-2,0,-4,-11,-2,-2,-1,0
1461661900370105,-1,-3,-1,9,0,-1,0,1
1461661900370105,-3,1,-3,-2,-1,-1,-2,-1
1461661900378139,-2,-2,-1,-6,-4,-2,-2,-3
1461661900378139,-1,0,2,9,3,-1,-1,1
1461661900393088,2,2,2,1,1,1,1,1
1461661900393088,-2,-2,-5,-4,-2,-1,0,-2
1461661900400092,1,-2,-3,-1,-1,-1,0,0
1461661900400092,-1,-2,-3,-2,-1,0,-1,-1
1461661900416114,-2,-1,-2,-4,-2,-3,-2,-1
1461661900416114,0,-1,1,0,-1,-1,-1,-1
1461661900423164,-2,-1,-2,0,1,0,-2,-3
1461661900423164,-1,-1,-5,-1,-2,0,-1,-2
1461661900430173,0,-1,3,-1,-2,-2,-1,0
1461661900430173,0,-6,-4,1,-1,1,1,-1
1461661900446151,-2,-1,-3,-3,-3,-1,-2,-3
1461661900446151,-1,-3,-2,0,2,1,0,-1
1461661900454127,-1,0,0,-10,-4,-1,-1,-2
1461661900454127,-3,-2,3,9,-1,-3,-2,-2
1461661900460145,0,-1,-2,1,2,0,-2,-3
1461661900460145,-1,-1,-4,-6,-2,-1,0,-2
1461661900476200,2,0,2,7,0,0,1,2
1461661900476200,-1,-3,1,-7,-4,-2,-1,0
1461661900477158,-1,0,-2,-1,-3,-2,0,-2
1461661900477158,1,-3,-3,-6,-2,-1,-2,-1
1461661900490208,-1,-2,0,2,0,1,0,-1
1461661900490208,-1,-3,-1,-3,0,0,0,-2
1461661900498158,-3,-1,-1,0,0,-2,-2,-3
1461661900498158,1,3,-1,-2,-2,0,0,0
1461661900513201,0,-1,1,0,0,-1,0,0
1461661900513201,0,-1,-7,-9,-4,-1,-3,-1
1461661900528205,0,-2,3,3,-2,-3,-3,-1
1461661900528205,1,-1,2,4,-1,-2,0,-2
1461661900536191,1,1,1,8,4,-1,-1,1
1461661900536191,-3,-2,-1,-4,0,0,-1,-2
1461661900537191,-2,-2,-6,-7,-2,-2,-3,-3
1461661900537191,0,0,-2,-4,-2,0,0,-1
1461661900552198,0,-3,0,-5,-5,-2,0,-2
1461661900552198,0,1,-4,2,-1,-2,-1,-1
1461661900558199,-4,-3,-1,2,-1,-1,-1,-2
1461661900558199,1,1,-1,4,1,2,0,-1
1461661900573210,-5,-6,-7,-12,-3,-2,-2,-2
1461661900573210,-4,-1,2,5,-1,-1,-1,-1
1461661900588279,-2,-2,-2,-5,-4,0,-1,-2
1461661900588279,0,-3,-2,0,-3,-1,0,-1
1461661900596286,1,2,0,-1,-1,-1,0,0
1461661900596286,-2,1,-1,-2,-1,-1,0,0
1461661900597228,-4,-3,-2,3,1,0,0,-2
1461661900597228,0,-3,-1,1,0,0,-1,1
1461661900610294,2,-1,-3,0,1,2,-1,-2
1461661900610294,-2,-2,-2,-2,0,-1,-2,-1
1461661900618272,-1,-1,0,1,1,-2,-1,-3
1461661900618272,-1,1,1,-1,1,0,0,1
1461661900633264,1,2,-2,5,3,0,1,1
1461661900633264,0,-3,4,-3,0,-1,-1,-2
1461661900640315,-2,0,5,8,-3,-2,-2,-3
1461661900640315,-2,-4,-5,6,9,1,1,-1
1461661900656270,0,0,0,-1,-1,-1,-2,-1
1461661900656270,0,-2,-4,-5,-3,-3,-1,-1
1461661900657271,-4,-2,-4,-9,-1,0,-3,-1
1461661900657271,1,2,6,4,-2,-1,0,-1
1461661900670338,-2,-1,-1,-6,-3,0,-1,0
1461661900670338,-3,1,2,4,0,0,-1,-1
1461661900678348,-2,-6,-3,-8,-3,-2,-2,-1
1461661900678348,0,0,1,0,-2,-1,-1,-1
1461661900693358,-1,-2,-4,-2,-2,-2,0,0
1461661900693358,2,-2,-8,-3,-2,0,0,-2
1461661900700299,-1,-1,-2,-1,-3,-1,0,-1
1461661900700299,-2,-4,-4,-5,-3,-4,-1,-1
1461661900716374,0,4,7,-4,1,1,0,1
1461661900716374,0,0,8,13,6,1,2,1
1461661900717312,-1,1,-6,-2,-3,-2,-2,-2
1461661900717312,-1,-3,-7,-10,-3,-1,-2,0
1461661900730380,-2,-3,3,-1,-2,-2,-3,-2
1461661900730380,3,9,5,9,3,1,-2,0
1461661900738343,-1,0,-3,-5,-1,0,-3,-4
1461661900738343,-1,-1,-1,-6,-7,-3,0,1
1461661900753345,-4,-11,-14,-5,2,0,-1,1
1461661900753345,-2,4,7,-3,-2,0,-3,-3
1461661900760361,-1,-1,1,4,2,-1,-2,-2
1461661900760361,-5,-2,0,-8,-5,-3,-2,-3
1461661900784365,2,3,-6,-4,-3,2,0,0
1461661900784365,-1,-5,-3,-8,-5,1,8,1
1461661900785366,-2,4,2,8,4,0,-6,3
1461661900785366,-4,-2,0,-8,-5,3,1,-2
1461661900790369,-1,1,0,15,13,1,-6,4
1461661900790369,1,-3,-5,-12,-11,-19,-17,3
1461661900798375,2,-5,5,2,-5,-5,-8,-4
1461661900798375,3,8,1,30,12,5,12,-1
1461661900813384,-8,-7,2,-27,-15,-1,0,-3
1461661900813384,-3,0,1,11,12,7,2,-2
1461661900820385,0,-3,-17,-16,4,1,6,3
1461661900820385,9,1,21,33,9,3,0,7
1461661900836396,8,10,1,16,5,2,7,2
1461661900836396,-7,-7,-1,-16,-12,-5,-7,-8
1461661900836396,-12,-2,-6,4,-1,0,2,-8
1461661900836396,0,-16,-14,-42,-13,2,23,3
1461661900850508,3,-3,-9,-3,-7,-2,-4,2
1461661900850508,3,8,0,5,4,7,-5,4
1461661900857530,-6,-7,-8,-19,-16,-16,-28,-16
1461661900857530,7,10,10,-17,-7,-10,24,7
1461661900872541,-14,-26,9,26,3,-5,-22,-1
1461661900872541,-25,-6,1,15,-1,-3,40,-7
1461661900880546,8,16,9,-10,5,20,3,-1
1461661900880546,22,17,-5,29,21,-8,-31,1
1461661900895543,9,-20,-9,-101,-62,-44,-25,11
1461661900895543,-6,-13,-25,63,36,19,39,-1
1461661900896530,-9,3,2,-11,0,14,-3,1
1461661900896530,-14,6,-5,23,6,4,35,-16
1461661900910577,16,3,5,-8,13,12,2,5
1461661900910577,18,0,-6,-38,-9,-11,-16,-1
1461661900917545,-23,-28,-9,-8,-12,-12,12,-28
1461661900917545,-2,31,-3,-96,-39,-10,-69,-7
1461661900932568,17,-8,20,95,48,6,38,19
1461661900932568,8,-3,8,-2,-10,-9,-13,8
1461661900940598,7,4,4,-7,1,15,17,2
1461661900940598,7,-22,-3,21,15,3,-7,1
1461661900955582,-5,28,-11,-58,-30,0,33,-5
1461661900955582,-22,-27,60,26,13,19,-8,-3
1461661900956571,42,-48,-22,-26,-1,-18,-13,16
1461661900956571,1,-62,-7,100,54,4,-53,9
1461661900970640,1,-59,-47,-41,-14,-12,-4,-3
1461661900970640,-36,-43,36,-23,-66,-14,20,-26
1461661900977643,14,-17,-16,56,67,58,4,-4
1461661900977643,-35,-15,15,-2,-3,-10,14,-6
1461661900992655,1,-1,-37,-24,8,-14,-7,-2
1461661900992655,5,69,-11,9,-1,-9,-22,2
1461661901000614,5,28,30,-52,-37,-20,4,3
1461661901000614,-25,37,40,7,-1,4,12,-7
1461661901016630,21,71,-8,32,3,13,9,7
1461661901016630,-7,76,-16,-32,-7,18,42,17
1461661901017615,12,113,14,36,7,0,-24,3
1461661901017615,5,88,-33,-70,-32,-24,16,2
1461661901030682,-17,-69,11,41,-1,-15,-61,-35
1461661901030682,25,-115,-20,-3,-2,-35,-34,27
1461661901037641,2,-128,22,42,27,20,51,21
1461661901037641,-20,-39,13,-128,-52,8,-8,-53
1461661901052651,13,127,7,70,42,18,14,-9
1461661901052651,-54,93,-46,-64,-19,-21,-13,3
1461661901060703,-10,127,8,88,12,-16,-11,6
1461661901060703,11,31,45,43,1,1,4,-19
1461661901076715,27,113,-2,-27,-11,20,28,-2
1461661901076715,64,119,-7,28,30,11,-4,40
1461661901083675,-55,-22,-30,-95,-34,-15,1,1
1461661901083675,-46,-82,-45,23,4,13,13,-34
1461661901090678,-33,-128,-18,-105,-29,29,-6,-9
1461661901090678,-1,-128,27,47,17,-52,-72,-5
1461661901097745,34,-95,9,-44,-7,-18,-35,-16
1461661901097745,60,-99,-6,-51,-1,40,-18,6
1461661901112785,-22,-108,-7,60,14,-6,24,15
1461661901112785,-17,-91,-13,-68,-44,-31,1,15
1461661901120789,-23,-64,5,-21,17,12,-1,-30
1461661901120789,6,-39,4,79,44,11,24,12
1461661901135754,5,-51,20,-20,-14,-3,12,2
1461661901135754,-14,-43,-37,-35,-10,25,1,-1
1461661901143806,-25,-110,25,16,-10,-17,-32,-15
1461661901143806,-63,102,-47,-87,-35,-9,-11,-39
1461661901150764,8,59,29,88,41,15,16,-5
1461661901150764,19,31,30,75,58,37,22,52
1461661901157770,115,-83,-15,-63,-37,-20,67,28
1461661901157770,-72,75,-42,-34,-13,-1,-51,-5
1461661901172827,44,33,50,-64,-29,-41,-31,-10
1461661901172827,-65,-67,-29,-72,-10,16,-6,-7
1461661901180837,-30,-80,12,42,24,4,-28,-9
1461661901180837,81,49,34,20,-4,1,37,-8
1461661901195849,62,106,-32,-71,-16,18,-9,9
1461661901195849,36,-49,58,76,43,7,18,9
1461661901203802,-65,-49,-26,-24,0,-35,12,44
1461661901203802,-42,37,-17,-2,-4,-46,-49,-2
1461661901210918,-86,82,-29,-81,-33,3,-6,-54
1461661901210918,29,-39,-36,-55,-19,9,-4,7
1461661901217919,27,-31,19,-15,-23,-5,-22,-12
1461661901217919,24,49,2,-11,20,2,21,-4
1461661901232929,7,64,29,34,33,11,18,31
1461661901232929,36,-25,-22,-96,-42,-10,3,11
1461661901240935,32,-16,21,22,22,26,26,-15
1461661901240935,-53,32,-1,34,6,-3,-11,-7
1461661901256919,-51,54,-24,28,7,8,-23,8
1461661901256919,-45,-20,-43,-94,-25,-12,46,-26
1461661901263951,1,-8,20,-20,-7,29,-17,-21
1461661901263951,72,30,18,64,38,-3,1,0
1461661901286939,98,48,-1,47,-3,-42,10,93
1461661901286939,14,-9,15,8,0,38,42,13
1461661901287939,-37,-2,-64,22,8,6,-9,-26
1461661901287939,-98,27,-14,-29,-18,-40,-32,-49
1461661901292942,-7,42,12,-40,-14,-13,-47,-46
1461661901292942,37,-11,-39,26,8,-9,2,29
1461661901299948,-20,4,-14,-97,-49,-14,-12,-6
1461661901299948,90,23,66,61,7,17,21,15
1461661901314958,5,37,10,-40,-7,-13,12,13
1461661901314958,-25,-5,6,53,15,18,-18,-34
1461661901323964,-27,10,41,86,30,20,2,-29
1461661901323964,13,25,-85,-7,5,20,38,34
1461661901338975,84,33,25,-34,-7,-8,-6,32
1461661901338975,-47,0,0,-57,-9,-9,-29,-27
1461661901338975,-42,16,-28,69,26,15,54,16
1461661901338975,16,22,-9,-3,-12,15,11,-31
1461661901360990,15,30,27,34,6,-5,-46,5
1461661901360990,-46,4,1,-29,-15,-10,-5,7
1461661901361991,-11,14,-5,-19,-16,-38,-27,-14
1461661901361991,-44,22,0,-67,-25,-13,108,41
1461661901375060,-50,27,-36,6,2,11,-47,-31
1461661901375060,30,7,-3,-24,-3,-15,-9,-3
1461661901383006,82,18,5,29,14,10,-56,-40
1461661901383006,57,20,24,67,18,1,-34,-18
1461661901399031,-63,26,-10,14,13,-6,7,12
1461661901399031,9,11,-34,-33,-14,5,44,21
1461661901399031,0,15,63,86,53,35,18,-2
1461661901399031,9,19,-5,-111,-26,-2,-10,5
1461661901413087,-12,25,-31,98,22,1,15,-12
1461661901413087,78,11,27,10,2,1,-29,1
1461661901420091,-20,18,-24,-92,-35,-8,14,16
1461661901420091,-14,18,40,39,3,-15,-27,-6
1461661901435073,-13,23,-3,-28,-7,16,13,4
1461661901435073,-53,14,4,3,-4,5,54,-16
1461661901443050,45,18,6,-21,-27,-52,-43,7
1461661901443050,-20,19,1,0,11,13,-55,-4
1461661901458063,-43,23,-22,-67,-32,-41,69,17
1461661901458063,-11,13,-14,58,9,4,-46,-27
1461661901459080,37,18,51,58,13,7,17,-3
1461661901459080,8,18,-3,-19,4,3,18,11
1461661901473090,-8,22,26,33,19,22,4,0
1461661901473090,-28,14,-41,-83,-38,-17,-38,-28
1461661901480086,-76,19,-28,-36,2,9,8,-24
1461661901480086,86,18,28,16,37,28,13,46
1461661901495104,8,21,44,-14,3,-1,14,5
1461661901495104,54,16,33,-16,16,1,-11,0
1461661901503131,-27,20,-67,-64,-34,-5,-1,11
1461661901503131,-19,17,-16,-3,-14,-3,39,6
1461661901518116,1,22,2,-7,-11,-6,-23,-4
1461661901518116,-8,16,8,31,-5,-16,57,30
1461661901519103,19,20,-12,-10,8,24,-64,-26
1461661901519103,94,18,7,6,-10,-36,-10,18
1461661901533127,-78,21,-5,-11,-19,-16,2,-10
1461661901533127,-63,15,21,-1,11,-2,-2,-12
1461661901540130,-4,17,-21,0,11,2,29,18
1461661901540130,-5,18,1,-35,-11,13,20,-19
1461661901555140,5,20,18,-7,-28,-4,-44,-21
1461661901555140,26,15,1,79,67,18,-12,13
1461661901563193,-20,20,-19,-68,-18,0,28,0
1461661901563193,14,17,17,74,36,8,-24,-1
1461661901578268,14,19,15,-24,-19,-16,-7,-1
1461661901578268,-4,16,-10,22,-7,-3,-13,-3
1461661901579238,20,25,6,-20,-5,4,34,2
1461661901579238,-41,16,-19,-24,-13,11,-29,0
1461661901593245,14,21,1,-31,-19,-30,40,21
1461661901593245,12,16,21,14,-7,-31,-60,-6
1461661901600250,-10,15,-21,3,-1,-13,4,-22
1461661901600250,38,17,16,-4,6,64,19,11
1461661901623256,-20,19,-23,7,7,-27,-13,4
1461661901623256,34,14,-14,-22,-7,17,-7,-2
1461661901624257,-23,19,7,12,5,1,-24,-22
1461661901624257,-23,17,-22,-23,-19,-21,10,-10
1461661901646292,-3,18,-1,0,-5,14,8,20
1461661901646292,28,15,25,29,10,-7,-9,-2
1461661901647253,-7,26,23,29,4,-1,-3,0
1461661901647253,-12,16,-57,-73,-41,-22,4,12
1461661901653297,28,19,8,89,60,23,-11,-5
1461661901653297,-20,15,26,-47,-16,-6,2,-1
1461661901660303,-17,29,21,-13,2,10,11,-4
1461661901660303,-16,16,-23,-32,-5,-14,-15,-6
1461661901675303,4,18,-27,-36,-17,-10,2,4
1461661901675303,0,15,-7,-2,-11,6,-1,-3
1461661901683309,11,28,-4,10,8,-16,17,9
1461661901683309,-20,17,-3,4,-17,-36,-57,-34
1461661901698319,24,18,0,-10,1,30,33,38
1461661901698319,-29,127,9,30,13,45,0,-15
1461661901699298,-1,78,-16,-24,-13,-36,-16,1
1461661901699298,9,-128,12,15,14,9,15,-11
1461661901713330,38,-128,3,11,14,24,7,-7
1461661901713330,35,-36,-4,-15,-12,-8,15,11
1461661901720307,-30,-22,-12,-18,-12,6,-4,0
1461661901720307,-13,-128,-4,-3,9,-9,-1,10
1461661901735332,12,-101,25,10,23,-4,-10,-3
1461661901735332,0,124,11,33,8,-6,0,-10
1461661901743338,-2,127,-5,-1,-10,-2,-14,-6
1461661901743338,-3,106,31,28,2,-6,4,11
1461661901760348,-3,41,-39,-44,-26,0,-3,-5
1461661901760348,-22,127,-14,-11,-14,-16,-9,-12
1461661901761336,-9,127,10,-2,-4,2,0,-8
1461661901761336,-3,51,0,-8,0,3,5,11
1461661901773344,-1,17,5,2,2,-7,-3,2
1461661901773344,-15,90,-4,-13,-4,-52,-12,0
1461661901780386,8,70,-6,6,8,59,-2,-11
1461661901780386,-12,11,4,1,1,3,12,5
1461661901795384,17,-5,-3,0,-2,33,23,10
1461661901795384,4,31,-5,3,7,-4,10,-4
1461661901803389,-15,30,9,1,-3,-26,-5,4
1461661901803389,-18,4,-10,-3,-6,-12,-10,-3
1461661901818389,-9,-13,-4,-9,0,-15,-12,-14
1461661901818389,9,9,3,-2,-8,5,4,-3
1461661901819390,-2,24,-11,-26,-12,-9,7,8
1461661901819390,-9,4,17,13,15,0,-6,-4
1461661901832399,-1,-22,-17,0,8,-2,-5,12
1461661901832399,0,6,7,-3,-1,12,2,-5
1461661901840405,0,21,15,17,0,-5,-4,2
1461661901840405,-3,-4,5,1,-5,-6,6,10
1461661901855440,-4,-19,-6,-13,-7,-6,-4,-14
1461661901855440,-18,8,7,-7,-1,5,-13,-33
1461661901862445,11,16,4,3,-3,-15,3,12
1461661901862445,-1,-7,-12,-2,-5,-13,3,19
1461661901878457,-19,-11,-10,0,0,8,-6,-24
1461661901878457,-11,8,-36,-12,1,21,7,-22
1461661901879419,18,6,-2,2,1,-1,2,16
1461661901879419,7,-4,1,0,-1,4,-6,17
1461661901893444,-7,36,0,3,4,2,-5,-10
1461661901893444,0,81,5,4,4,-3,2,-18
1461661901900444,12,113,-6,-3,0,9,5,16
1461661901900444,3,107,1,-2,-5,-7,4,24
1461661901915453,-12,76,-1,6,2,-2,-18,-33
1461661901915453,-8,51,-5,-6,-1,2,-4,-18
1461661901923450,6,24,-3,-4,-5,-14,-7,8
1461661901923450,10,7,-16,-13,-5,2,5,18
1461661901938460,-11,-18,13,-1,6,3,4,-9
1461661901938460,-6,-4,6,10,7,4,-1,-16
1461661901939461,11,-16,-4,9,1,-11,-1,13
1461661901939461,-1,-21,-7,-1,-5,1,0,6
1461661901952485,-7,-13,4,-6,-1,3,3,-5
1461661901952485,-5,-22,-4,-3,-1,-7,-8,-11
1461661901960536,1,-24,-14,-8,-5,-9,2,11
1461661901960536,3,-22,6,1,1,-5,-2,5
1461661901975551,-3,-7,17,5,2,8,3,-7
1461661901975551,-6,-22,-17,-9,-4,-2,-3,-9
1461661901982511,6,-20,-3,-4,-1,0,-3,10
1461661901982511,1,-5,9,1,-1,1,-2,4
1461661901998509,-8,-10,-6,3,2,0,1,-6
1461661901998509,2,-16,-2,2,-3,-8,-1,-2
1461661901999503,10,-22,-1,-7,-3,15,6,9
1461661901999503,-2,-26,-7,1,-1,-6,-2,2
1461661902012536,-3,-21,7,4,1,-2,-1,-5
1461661902012536,2,-5,7,-1,-4,4,-1,-10
1461661902020543,4,-16,-8,-4,-6,-14,-6,-1
1461661902020543,3,-11,-3,5,4,8,5,8
1461661902035540,-4,-22,-3,0,-1,3,2,-2
1461661902035540,-6,-24,-11,-8,-3,-9,-5,-4
1461661902042572,5,-19,4,-1,-2,-5,-1,11
1461661902042572,-2,-23,-4,-14,-6,2,-4,-1
1461661902057584,0,-7,15,17,11,0,0,-5
1461661902057584,0,-16,1,-1,-2,0,-1,-7
1461661902066551,4,-10,-3,-3,-4,-4,0,1
1461661902066551,-1,-6,-4,10,1,1,0,-1
1461661902072593,-4,-9,-7,-8,-3,-3,0,-4
1461661902072593,-5,-5,-3,-1,1,1,-3,-4
1461661902080560,6,4,24,1,-2,-2,2,3
1461661902080560,-6,-14,-21,-1,-2,-1,-1,-1
1461661902095629,-5,-3,2,-4,-2,1,-1,-1
1461661902095629,-1,-13,-9,2,0,5,0,-3
1461661902102574,4,-3,-4,-2,-3,-8,-2,2
1461661902102574,2,-4,7,0,1,1,0,1
1461661902117644,-6,-7,-4,-1,-1,1,0,-3
1461661902117644,-3,-5,5,-2,-2,-1,-4,-4
1461661902126608,4,2,-5,-1,0,-1,-1,3
1461661902126608,-1,-9,-5,-3,-1,0,-2,-1
1461661902132609,-5,-3,0,-4,-3,-1,1,-3
1461661902132609,-2,-2,1,-5,-4,-3,-4,-2
1461661902140659,8,16,12,2,2,-1,-2,1
1461661902140659,1,-2,2,5,4,-2,1,1
1461661902155638,-10,-14,-32,-13,-4,0,-1,-5
1461661902155638,-1,-7,2,0,-2,-1,0,-2
1461661902162625,-1,-5,-6,-8,-2,-2,0,1
1461661902162625,5,15,18,17,5,-1,0,1
1461661902177645,1,0,2,4,-1,-5,-3,-2
1461661902177645,0,0,4,-2,-3,2,0,0
1461661902186635,1,4,-3,5,2,-1,1,2
1461661902186635,-3,-10,-8,-7,-3,-1,1,0
1461661902192656,-6,-1,4,-2,-2,1,-2,-2
1461661902192656,-1,-1,-4,-1,-3,-3,-3,0
1461661902200684,0,2,11,3,-2,-3,-2,0
1461661902200684,-2,-1,-1,-1,1,4,1,1
1461661902215669,-1,4,-1,0,-1,0,-1,-1
1461661902215669,0,-2,-1,-2,0,-1,-2,-3
1461661902239690,-1,-4,-7,0,0,2,0,0
1461661902239690,-3,1,4,-1,-3,-3,-1,0
1461661902240674,-2,1,6,-1,-2,-1,0,-2
1461661902240674,-3,1,1,-2,1,0,-2,-1
1461661902245690,-2,-6,-5,-5,-4,-2,0,0
1461661902245690,-1,2,-4,-1,0,1,0,-1
1461661902260701,0,-1,-3,1,1,-1,0,-2
1461661902260701,0,2,3,-4,-3,-4,-2,-2
1461661902261688,-4,-10,-8,-3,0,-2,-2,-1
1461661902261688,1,4,5,-4,-1,0,1,0
1461661902283712,1,2,3,8,4,1,-1,1
1461661902283712,-3,-4,-9,-1,-1,-1,-1,-2
1461661902284704,0,-3,-9,-5,-4,-3,-2,0
1461661902284704,-2,1,9,-1,-3,-2,-1,-2
1461661902297713,-4,1,2,-2,-2,1,-1,-2
1461661902297713,-3,-2,-1,1,0,-2,-3,-3
1461661902313724,-2,-3,-3,3,-1,-2,-1,0
1461661902313724,2,3,3,-3,-3,0,1,1
1461661902320729,-3,-2,-2,-1,-3,-4,-3,-4
1461661902320729,-3,-4,-6,-1,-1,1,1,-2
1461661902321730,2,4,6,3,-1,-2,-1,0
1461661902321730,-1,-3,-3,-1,1,-1,0,0
1461661902335739,2,3,13,-1,-1,4,2,1
1461661902335739,-2,-1,-2,-3,-1,-3,-2,-1
1461661902342746,-1,-3,-10,1,1,0,-2,1
1461661902342746,-1,4,6,2,-1,-2,-1,-1
1461661902357755,-3,-5,-9,-6,-4,-1,0,-1
1461661902357755,1,6,7,-6,-3,-1,-2,-3
1461661902365761,-2,-6,2,12,4,0,1,2
1461661902365761,-1,1,-1,-3,-1,-2,-1,0
1461661902380831,-6,-10,-10,-1,0,-2,-2,-4
1461661902380831,-1,-3,-3,-3,-3,-4,-1,-1
1461661902388806,3,1,1,-4,-5,-4,-1,-1
1461661902388806,-3,0,-6,-15,-6,-1,0,-1
1461661902396785,2,-1,5,20,9,3,1,-1
1461661902396785,-2,-1,5,3,0,-2,-1,-3
1461661902402800,3,1,1,-1,-2,-2,-1,-1
1461661902402800,0,-4,-6,-3,0,0,-1,0
1461661902417817,-2,0,-6,-14,-7,-4,-3,-1
1461661902417817,-3,-4,-4,1,-1,-1,-2,-3
1461661902425866,1,2,7,0,0,1,1,0
1461661902425866,2,1,1,1,-1,-2,-1,-2
1461661902440817,-3,-5,-7,-5,-2,-3,-1,-2
1461661902440817,1,0,-2,3,1,-1,-3,-2
1461661902441816,2,5,-5,-5,-1,0,0,2
1461661902441816,-3,-11,2,4,0,-1,0,-1
1461661902455843,-4,-2,-3,-1,-2,-2,-2,-2
1461661902455843,0,0,-2,-3,-3,-3,-1,0
1461661902462849,0,-3,-8,-4,0,1,-1,1
1461661902462849,1,1,-5,2,0,-1,-2,0
1461661902477881,-2,-3,-4,-2,-1,0,-3,-1
1461661902477881,-3,1,7,-4,-2,-3,0,-2
1461661902485859,0,-2,1,-1,0,-2,-2,-1
1461661902485859,-1,3,7,3,0,-1,-1,0
1461661902500869,-2,-2,-6,-4,-1,-1,-1,-2
1461661902500869,-1,2,-4,1,-1,1,-1,-1
1461661902501858,-3,-1,8,-4,-3,-1,-2,-2
1461661902501858,-1,-8,-4,0,2,0,1,0
1461661902515869,2,3,1,-4,-2,-2,-1,-1
1461661902515869,-1,-3,-3,1,0,-1,-3,0
1461661902522912,0,-2,-3,1,-2,-3,-2,1
1461661902522912,1,3,2,-1,-3,0,1,0
1461661902539899,0,2,1,-1,0,-2,1,-2
1461661902539899,-3,-10,-9,-2,0,0,-2,-2
1461661902562919,1,-1,-7,-2,-1,0,0,1
1461661902562919,0,3,1,2,0,0,-1,0
1461661902563901,0,0,-5,0,0,-1,-1,-1
1461661902563901,-1,4,13,-3,-2,-3,-3,-2
1461661902564905,-2,-14,-23,-1,2,1,0,0
1461661902564905,-1,-2,-2,-2,-2,-2,1,-1
1461661902583934,-2,0,-7,-2,-2,-2,-1,-1
1461661902583934,-1,-1,2,0,-1,0,-1,-1
1461661902583934,-1,1,7,1,-1,-1,1,0
1461661902583934,1,2,-5,-8,-6,-1,-1,1
1461661902597959,-5,-5,-8,-5,-4,0,-3,-2
1461661902597959,-2,4,16,13,5,-1,-1,-2
1461661902605994,-2,-8,-8,-3,1,2,0,-1
1461661902605994,1,9,9,3,5,2,0,0
1461661902620949,-2,-9,-8,-7,-3,-2,0,-2
1461661902620949,-2,-3,-13,-5,-2,-1,-1,-1
1461661902621944,3,6,7,3,-3,-2,-1,-1
1461661902621944,-1,0,0,-4,-3,-2,0,0
1461661902636960,-2,-2,1,1,-1,-3,-3,0
1461661902636960,-1,-1,-4,2,0,-1,0,-2
1461661902642982,2,2,7,2,1,0,2,-1
1461661902642982,0,-2,-1,1,-1,-1,-4,-1
1461661902657984,-1,1,1,-1,0,1,-2,-3
1461661902657984,0,-4,-7,-4,-2,-2,-1,-1
1461661902666991,0,0,-2,-1,-1,-2,-2,-1
1461661902666991,0,3,2,2,0,2,1,0
1461661902680997,0,7,15,1,-1,0,0,-1
1461661902680997,-6,-12,-19,-7,-2,2,-1,-2
1461661902681986,0,1,0,-2,-1,-1,0,0
1461661902681986,0,-3,-5,2,0,-2,-1,-1
1461661902695006,-1,3,6,3,-1,-1,0,-2
1461661902695006,1,3,0,-1,-3,-3,0,-1
1461661902703029,-2,-3,-3,-12,-6,-1,-1,-1
1461661902703029,-1,-2,-1,3,3,1,0,-1
1461661902718011,0,3,2,0,2,-1,-1,-1
1461661902718011,-2,-4,2,1,2,-1,0,-2
1461661902726046,0,-2,-5,-1,-2,-2,-1,0
1461661902726046,-2,-1,7,-4,-3,0,-1,-1
1461661902741094,-3,-4,-15,-2,-1,0,-1,-1
1461661902741094,0,2,12,0,-1,-1,1,-1
1461661902742030,1,-4,-18,-2,-1,-1,1,1
1461661902742030,-6,-7,-11,-1,-1,0,-1,-2
1461661902757039,1,0,5,3,0,-1,-1,-4
1461661902757039,-2,0,-1,-2,-3,-1,-1,-1
1461661902763064,1,1,7,3,2,3,0,0
1461661902763064,-2,3,2,2,0,-4,-2,-2
1461661902778067,-1,-5,0,-2,-5,-2,-2,-2
1461661902778067,-2,-1,0,-3,-3,-1,-2,-1
1461661902786073,1,-1,6,0,0,-1,1,0
1461661902786073,0,-4,-15,-2,1,2,0,-1
1461661902801128,-3,-2,-2,0,-2,-2,-3,-3
1461661902801128,1,-1,-8,-4,0,-1,-3,-1
1461661902802071,-3,-1,6,3,-1,-2,-2,-2
1461661902802071,3,0,7,-1,-2,1,0,1
1461661902815230,-4,-1,-7,0,-1,0,-1,0
1461661902815230,0,0,0,1,-1,0,-2,-2
1461661902823291,1,1,-5,2,3,0,0,1
1461661902823291,-2,-5,0,2,1,-1,0,0
1461661902838252,-4,-3,-7,-9,-5,-1,-1,-3
1461661902838252,0,-1,-4,9,5,2,0,0
1461661902846251,1,4,17,-1,-3,-1,-1,1
1461661902846251,1,-3,-12,1,0,-1,0,1
1461661902861275,-3,0,12,0,0,-2,-2,-2
1461661902861275,-2,-6,-12,-6,-4,0,0,-3
1461661902862276,4,8,8,-1,-1,-1,-1,0
1461661902862276,2,-2,-6,-2,-3,0,-1,1
1461661902875285,-10,-8,-8,-6,-2,-3,-2,-5
1461661902875285,-1,0,-1,-2,-2,-2,0,0
1461661902883276,1,1,12,1,1,1,1,0
1461661902883276,0,-3,-13,1,-1,1,0,0
1461661902898302,-3,-7,-9,-2,-2,-1,-1,-2
1461661902898302,-2,4,21,0,-1,-4,-2,-3
1461661902906350,2,-2,-16,0,0,-2,-2,-1
1461661902906350,0,1,0,-2,1,-3,-1,-2
1461661902921361,1,-1,-5,3,1,1,-1,0
1461661902921361,-4,0,11,-4,0,-2,-5,-2
1461661902922333,1,-3,-5,-6,-1,-1,0,0
1461661902922333,1,3,1,5,-1,-4,-1,-2
1461661902943318,-6,-7,6,-12,-4,-2,-3,-4
1461661902943318,-1,-2,0,5,-3,-1,-1,-1
1461661902951335,1,3,13,1,0,-2,-2,-1
1461661902951335,0,-13,-29,-9,-1,0,-2,-2
1461661902958337,0,11,7,3,-1,-1,1,0
1461661902958337,-5,-8,-5,-1,-2,1,1,0
