timestamp,emg1,emg2,emg3,emg4,emg5,emg6,emg7,emg8
1461663355621020,0,2,-2,-1,0,1,-2,-2
1461663355621020,-4,-5,-3,-2,-2,-1,-1,-1
1461663355630027,-2,-2,0,-1,0,0,-1,0
1461663355630027,2,6,-1,1,-2,-1,-2,0
1461663355636031,-2,-12,-3,0,-1,0,1,-1
1461663355636031,0,0,-2,-1,-1,0,0,1
1461663355653057,0,1,-1,-1,-4,-2,0,1
1461663355653057,2,1,3,-1,-2,-3,0,-2
1461663355654063,2,6,2,0,0,0,-1,1
1461663355654063,-2,-7,-3,-2,-2,1,-1,-1
1461663355668054,0,0,2,1,-2,0,-2,-2
1461663355668054,-2,-3,-2,-1,-1,-1,0,-3
1461663355674070,-3,-3,-2,0,-1,0,1,-1
1461663355674070,0,4,-1,-2,0,-3,-1,0
1461663355689917,1,2,0,-2,-3,-2,-1,-1
1461663355689917,-2,1,2,0,-1,-1,-1,0
1461663355696457,-2,-1,-1,0,-2,-2,0,-1
1461663355696457,-3,-5,-3,0,-1,0,0,0
1461663355712971,1,7,1,-3,-3,-2,-2,-1
1461663355712971,-5,-24,-6,0,-2,1,0,-2
1461663355714449,4,11,1,-1,-2,-2,-1,0
1461663355714449,-2,-3,2,-1,0,0,-1,-1
1461663355735963,2,6,6,0,0,-2,-2,0
1461663355735963,-3,-11,-4,-2,0,-2,-1,-2
1461663355737462,-4,-10,-20,-4,-2,0,-3,-1
1461663355737462,-4,-12,-12,-3,-3,-3,-2,-2
1461663355749477,0,4,4,0,0,1,0,-1
1461663355749477,2,11,3,0,2,-1,-2,-2
1461663355757964,-4,-3,3,1,-1,-1,0,-2
1461663355757964,2,8,1,-1,-1,-1,0,1
1461663355773034,-5,-4,-2,-2,-3,0,-1,-1
1461663355773034,-1,1,2,-2,-1,-2,0,-4
1461663355774992,-1,-3,-2,-2,-1,1,-1,-1
1461663355774992,2,8,-1,0,0,1,-1,0
1461663355787497,-2,-5,-2,-1,-1,0,-1,0
1461663355787497,-1,3,-1,-2,-1,0,-1,-1
1461663355795007,2,2,2,0,-1,-2,-1,-1
1461663355795007,3,0,2,0,-2,-2,1,0
1461663355810021,-2,-7,-5,-1,-2,0,-2,-1
1461663355810021,-1,3,-4,-2,1,-1,0,-1
1461663355816525,-5,-1,3,-2,0,2,0,0
1461663355816525,-1,-4,3,1,1,-1,-2,0
1461663355833076,0,-2,-4,-2,-1,-2,-2,-2
1461663355833076,-2,-2,-1,-1,-2,-2,-2,-2
1461663355834518,1,3,3,0,-1,-1,-1,-2
1461663355834518,-1,2,1,0,-2,0,-1,-1
1461663355847560,-4,-5,-7,-1,-2,-1,0,0
1461663355847560,-1,2,4,-1,-1,-1,-2,-2
1461663355854031,3,2,0,1,-1,-1,-1,1
1461663355854031,1,-7,-7,-1,-1,-1,-2,-1
1461663355870061,-1,-3,0,-2,-1,-1,-1,-3
1461663355870061,-6,-10,-4,-3,-3,0,1,-2
1461663355876605,0,-2,-2,-1,0,-1,-1,-1
1461663355876605,4,8,0,0,-2,-1,-1,-1
1461663355893060,-5,-15,2,-1,-1,-1,-2,-2
1461663355893060,1,4,-2,0,0,-1,-1,-1
1461663355895564,-2,2,-3,-2,0,-2,-1,-1
1461663355895564,-2,-3,-2,0,1,0,0,0
1461663355907175,2,4,4,1,0,-1,-1,1
1461663355907175,1,1,3,0,0,-2,0,-1
1461663355914225,-2,-12,-10,-3,-1,-3,-2,-3
1461663355914225,1,5,-3,-3,-1,-1,-2,0
1461663355929736,1,4,0,-2,-1,-1,-1,1
1461663355929736,-1,-2,-1,2,-1,0,-1,-2
1461663355936695,1,7,4,1,-1,-1,0,-1
1461663355936695,-4,-9,0,-1,0,-2,-2,-1
1461663355953201,0,4,0,-1,2,2,1,2
1461663355953201,-2,-5,-5,-2,-2,-3,-1,1
1461663355954703,0,0,0,-2,0,0,-1,-2
1461663355954703,-1,3,4,1,-2,0,-2,0
1461663355967706,-2,-3,-8,0,-2,-2,-1,-1
1461663355967706,-7,-8,-7,-2,-1,-1,-2,-2
1461663355981718,1,0,10,0,-1,-1,-1,-2
1461663355981718,-1,-3,2,-1,0,-1,-1,-1
1461663355989724,4,9,-11,-4,-1,-2,-1,1
1461663355989724,-2,-5,-5,0,-1,-2,-2,-3
1461663355996728,-3,0,25,1,-2,1,0,-2
1461663355996728,2,-3,-9,-3,-2,-1,1,-1
1461663356013237,-3,-11,-14,-1,-2,0,-1,0
1461663356013237,0,8,-4,-1,-1,0,-1,0
1461663356014754,-2,-6,-10,-3,-2,-2,-1,-3
1461663356014754,1,5,8,-1,0,-1,0,-1
1461663356027250,-1,0,2,1,1,-1,0,2
1461663356027250,-3,1,-2,-3,-1,-1,-2,2
1461663356041756,-3,-4,-5,-2,-2,-2,-1,-3
1461663356041756,1,6,3,0,-2,-1,-2,-2
1461663356049766,0,-3,-1,-1,-1,-1,-1,0
1461663356049766,2,5,7,-1,0,0,-2,0
1461663356056768,-2,-8,0,0,-2,-1,-3,-3
1461663356056768,-1,-2,-8,-1,1,0,1,0
1461663356073284,0,-2,6,0,1,0,0,1
1461663356073284,-2,1,5,-4,-3,0,-3,-2
1461663356074786,0,6,-7,-4,-2,-2,-1,-2
1461663356074786,-2,-2,3,-1,-2,-2,-1,-1
1461663356087294,-1,4,8,1,-1,-1,1,2
1461663356087294,1,2,-6,-2,-1,-2,-1,-1
1461663356094295,-2,-12,-11,-4,-3,-1,-1,-4
1461663356094295,-1,-1,-2,0,0,0,-2,-2
1461663356109805,-4,-4,-1,0,-1,-2,-1,3
1461663356109805,0,3,7,0,-1,-2,0,2
1461663356116810,0,-2,-5,2,0,-1,-2,-5
1461663356116810,-3,-3,-2,0,-1,-1,0,-2
1461663356132821,-3,-1,-7,-3,-3,0,-2,1
1461663356132821,-5,-2,1,0,-2,-1,0,-1
1461663356134822,1,7,8,3,-1,-2,-1,-4
1461663356134822,1,-4,-5,-1,0,-1,-2,-4
1461663356146831,-4,-7,-9,0,0,-1,-2,2
1461663356146831,0,4,-5,-2,-2,0,-1,0
1461663356155850,0,5,-2,-1,-1,-1,0,-3
1461663356155850,-1,-6,3,0,-1,1,-1,-3
1461663356169868,0,2,-1,0,-1,-1,-1,4
1461663356169868,-4,-9,-5,-2,-3,-1,0,1
1461663356176916,4,16,9,2,0,-3,-1,-1
1461663356176916,-1,-20,-21,-1,1,-2,0,-1
1461663356192863,-1,4,-6,-3,-1,0,0,0
1461663356192863,-8,-15,-8,-1,0,-1,0,-2
1461663356194865,-2,1,1,-1,-3,-2,-3,-5
1461663356194865,-2,0,6,-4,0,0,-3,-3
1461663356206940,0,-1,2,0,-1,0,-1,2
1461663356206940,0,3,-1,0,0,-1,-1,1
1461663356215949,2,-4,-5,-4,-1,-1,0,0
1461663356215949,-1,-1,-1,0,-2,-2,1,0
1461663356229962,-3,-2,2,-1,-2,-1,0,-4
1461663356229962,0,5,4,0,-1,-1,-3,-3
1461663356236459,-1,-2,-6,-2,1,-1,-2,3
1461663356236459,-1,-4,1,-1,-1,-1,1,4
1461663356260463,-1,-1,2,-1,-2,-2,-2,-4
1461663356260463,-1,-2,-2,2,1,-1,-2,-5
1461663356262481,1,0,0,-2,-1,-1,0,3
1461663356262481,4,5,-4,-2,-1,0,1,6
1461663356266984,-4,-5,-8,-2,-4,-1,-1,-8
1461663356266984,-2,5,-2,1,-2,-1,-2,-8
1461663356275494,-1,-10,2,1,-1,-1,0,4
1461663356275494,2,4,-5,-1,-1,0,-2,5
1461663356290005,-10,-14,-5,-3,-4,-1,0,-5
1461663356290005,-1,-2,-11,-2,-4,0,0,-8
1461663356296508,-3,-9,-1,-1,1,2,0,4
1461663356296508,-3,2,9,0,-2,-3,-1,3
1461663356313022,1,2,-2,-2,1,-2,-1,-3
1461663356313022,-3,-6,-4,-3,-2,-1,-3,-9
1461663356314522,1,7,-7,0,-1,-2,0,4
1461663356314522,4,4,4,2,0,0,-2,6
1461663356326529,1,4,-2,0,1,-1,-2,-7
1461663356326529,1,0,5,-1,-2,-2,-1,-4
1461663356343024,-7,-13,-10,-5,-2,-1,-1,2
1461663356343024,-2,3,2,-1,-2,0,-1,3
1461663356350046,-1,-1,-3,0,-3,-1,0,-3
1461663356350046,1,0,0,-4,-1,-1,0,-4
1461663356364096,5,5,-2,-1,-2,-3,-1,1
1461663356364096,-1,-5,-4,0,0,-1,-1,1
1461663356372635,-4,-4,1,0,-1,-1,0,-2
1461663356372635,-1,-4,-3,-1,-1,-1,-2,-3
1461663356379199,0,1,-3,-3,-1,0,-2,2
1461663356379199,2,2,0,1,0,-1,1,2
1461663356386644,0,-5,1,-2,-1,0,0,-3
1461663356386644,-2,8,3,-1,-2,-1,-1,-2
1461663356395665,-4,-10,1,0,-1,0,1,-1
1461663356395665,0,0,4,-1,-2,-2,-1,1
1461663356409813,1,4,7,0,1,-1,-2,-2
1461663356409813,-2,-2,6,3,1,-1,0,-3
1461663356416815,-3,-10,-12,-4,-2,-1,0,-1
1461663356416815,0,3,-1,-3,-2,0,-1,1
1461663356432341,0,0,-1,-1,-3,-2,-2,-1
1461663356432341,1,-5,-3,-5,-2,-1,-2,0
1461663356439301,1,2,10,4,3,0,-1,0
1461663356439301,-3,-5,15,-2,-3,-1,0,-2
1461663356446305,1,3,2,-2,-3,-1,-1,-2
1461663356446305,-4,-4,1,0,-2,0,-2,-3
1461663356455314,2,-1,-6,0,1,0,0,-2
1461663356455314,3,14,-2,-1,0,-1,-1,1
1461663356469338,-3,-5,7,-1,-1,-2,-1,-1
1461663356469338,-4,-16,-7,-1,0,-2,-2,-2
1461663356476389,-1,3,-1,-2,-2,0,-1,1
1461663356476389,-1,-2,2,1,0,-1,0,0
1461663356492336,1,7,7,-4,-5,-2,-2,-3
1461663356492336,-2,-12,-12,0,4,0,0,-1
1461663356499404,1,3,-2,-2,-2,-1,1,1
1461663356499404,-5,-10,-1,0,1,0,-1,1
1461663356506347,-4,-3,2,1,-1,-2,0,-1
1461663356506347,1,7,12,1,-2,-3,-1,-3
1461663356515359,-3,-12,-15,-1,-2,-1,-2,-1
1461663356515359,-2,0,-2,-2,1,-1,0,-1
1461663356529396,-3,-7,1,-3,-1,-2,-3,-3
1461663356529396,2,5,2,1,-2,-1,-1,-4
1461663356536376,0,6,5,0,-1,-1,0,2
1461663356536376,1,-8,-2,1,0,-1,1,0
1461663356552387,-1,-2,-9,-2,-1,-1,-3,-2
1461663356552387,-2,-3,1,0,0,1,-3,-2
1461663356559390,2,8,4,1,1,0,0,-1
1461663356559390,1,-5,-4,-1,0,-2,-2,0
1461663356575397,-5,2,9,1,-2,-1,-2,-5
1461663356575397,-1,-8,-17,-3,-3,0,0,-2
1461663356577398,3,2,5,-2,-1,-1,-1,2
1461663356577398,2,0,-5,-2,-1,0,-1,2
1461663356589408,2,4,-3,-2,-2,-4,-2,-1
1461663356589408,-8,-6,-4,-2,0,-1,-1,-4
1461663356596410,2,1,12,1,0,-1,-1,1
1461663356596410,5,22,26,-5,-6,-2,-1,1
1461663356612437,-7,-21,-16,-2,-1,0,-1,0
1461663356612437,-1,2,17,-2,-1,-1,-1,-2
1461663356618428,-2,6,3,-3,-1,-2,-1,-3
1461663356618428,-4,-13,-38,-11,-3,0,-2,-1
1461663356635439,6,16,12,7,2,1,-2,-1
1461663356635439,2,-2,-25,2,1,-2,0,0
1461663356637442,-3,-7,1,-1,-1,-1,-2,0
1461663356637442,-3,-5,0,-2,-1,-1,-1,-1
1461663356649449,0,2,1,0,1,-1,-1,-1
1461663356649449,-2,-2,-11,-3,0,-1,1,-2
1461663356656454,2,-1,0,-3,-3,-2,-1,-1
1461663356656454,1,0,-3,1,-1,-1,-1,0
1461663356672464,0,-2,0,-3,-3,0,-1,-1
1461663356672464,-3,5,15,-2,-6,-3,-3,-2
1461663356679469,-2,5,4,5,10,3,0,-2
1461663356679469,-2,0,6,1,-2,-2,-2,-3
1461663356702484,-4,-11,-12,-8,-4,-1,1,0
1461663356702484,8,31,12,-9,-10,-4,-1,-1
1461663356704486,-9,-22,-4,23,15,4,2,-2
1461663356704486,-4,-3,6,4,2,-1,-3,-2
1461663356709489,0,5,-4,5,2,0,-3,1
1461663356709489,0,-1,1,-3,2,0,0,1
1461663356716494,2,8,2,-13,-9,-1,-2,-1
1461663356716494,2,-1,4,6,1,-2,1,1
1461663356732505,-3,-10,-15,-1,-1,-2,-2,-2
1461663356732505,-1,4,9,5,3,0,-2,-1
1461663356738510,3,1,-3,-3,-4,-1,-1,1
1461663356738510,0,12,11,2,0,0,0,-1
1461663356755522,-2,5,17,-7,-7,-4,-3,-3
1461663356755522,-7,-26,-28,-2,0,1,0,-3
1461663356756523,0,2,-5,-2,-4,-1,0,2
1461663356756523,-3,-1,-6,-4,-4,-1,-1,1
1461663356769534,-4,0,-3,-9,-8,-5,-1,-3
1461663356769534,1,-1,7,24,16,1,0,0
1461663356776538,-1,-5,-2,-4,-5,-3,-2,1
1461663356776538,2,-5,4,0,5,0,1,2
1461663356792548,-1,1,-2,-4,-2,-2,0,-6
1461663356792548,0,-4,2,-8,-7,-2,0,-4
1461663356798554,1,1,-10,5,9,1,0,4
1461663356798554,-3,0,11,3,2,0,0,0
1461663356815594,-4,-3,-5,-1,0,-1,0,-6
1461663356815594,2,-4,-7,-9,-6,0,0,-1
1461663356816595,-2,5,5,-2,-4,-1,-2,2
1461663356816595,2,-2,-2,-3,-3,-1,-2,2
1461663356829577,-7,-29,-7,1,1,-1,-1,-7
1461663356829577,-1,10,-2,4,2,-1,-2,-3
1461663356837611,9,-3,-5,-9,-8,0,2,8
1461663356837611,-6,-6,-3,-17,-5,-2,-2,1
1461663356852621,0,-10,-11,-10,-7,-5,-6,-5
1461663356852621,-7,-9,3,4,-3,2,3,-1
1461663356858624,-7,-16,-15,6,10,6,6,3
1461663356858624,0,-13,-18,25,4,-1,-3,0
1461663356874622,3,19,20,-3,-1,-4,-3,-3
1461663356874622,1,-1,5,-18,-13,-6,-9,-3
1461663356875622,0,9,-2,-9,-7,-4,-3,3
1461663356875622,-3,0,-2,-11,-9,-1,-2,0
1461663356890618,-8,-23,-9,23,22,7,2,-9
1461663356890618,5,12,13,1,-3,-2,-3,0
1461663356896638,-3,0,2,6,1,3,13,7
1461663356896638,5,3,2,1,0,-2,-10,0
1461663356912634,-7,-13,-11,-11,-14,-3,3,-11
1461663356912634,8,10,-7,-7,2,4,-5,2
1461663356918677,-19,-22,-8,-10,-9,2,27,3
1461663356918677,-7,10,3,2,2,2,13,11
1461663356934649,7,17,0,-13,-11,-8,-9,-1
1461663356934649,-12,-4,4,0,-10,-14,-37,-16
1461663356935664,11,12,-5,-56,-27,-19,-38,-3
1461663356935664,-5,-5,4,14,10,1,-7,-4
1461663356956676,-11,36,3,19,1,0,14,-8
1461663356956676,12,-18,2,5,13,15,50,11
1461663356957668,9,38,13,16,-6,-6,-27,-2
1461663356957668,-7,23,8,4,10,-5,-5,-8
1461663356972682,-9,-5,-9,-5,8,10,17,-4
1461663356972682,-12,-34,-4,-11,0,11,20,3
1461663356978739,5,-15,3,9,-12,1,2,8
1461663356978739,23,10,-1,0,2,0,2,3
1461663356995694,9,29,20,-35,-28,-23,-61,-14
1461663356995694,-10,-12,-3,21,2,-14,-2,-10
1461663356996694,4,-60,-23,-20,1,8,14,18
1461663356996694,-12,-1,-16,17,3,7,33,11
1461663357016737,2,0,-10,12,10,0,-29,-5
1461663357016737,-20,-5,-10,-12,-12,-23,-52,-15
1461663357017709,15,5,13,21,-3,-14,-17,-2
1461663357017709,7,-2,11,-12,-8,4,4,2
1461663357032735,-8,21,-5,64,49,27,88,8
1461663357032735,1,43,12,-83,-38,-5,-24,-5
1461663357038735,-22,-46,-19,44,47,-2,-2,-2
1461663357038735,-10,3,-5,6,-1,-3,-3,-6
1461663357061740,49,61,33,-18,-2,27,30,8
1461663357061740,-26,-60,-16,64,21,3,-19,2
1461663357062740,-17,4,19,21,4,-5,-30,-3
1461663357062740,-25,29,-25,-56,-25,2,31,-10
1461663357076780,-13,-87,-10,10,3,-14,-52,-22
1461663357076780,12,4,-6,-24,-9,-5,27,14
1461663357077752,15,5,1,-70,-23,2,-17,9
1461663357077752,17,-32,14,38,29,14,5,8
1461663357092776,10,31,14,12,-19,12,50,5
1461663357092776,6,0,-3,-27,-14,-24,-93,-28
1461663357098781,-42,-24,8,-30,-40,-44,35,-15
1461663357098781,19,-2,20,46,4,-13,-4,7
1461663357114794,8,-50,-54,-23,20,-3,-13,-4
1461663357114794,21,69,20,-2,25,26,33,15
1461663357115794,-30,-61,20,12,0,17,23,2
1461663357115794,1,-16,-60,34,9,9,1,-8
1461663357138795,19,-66,27,-28,-3,24,70,-2
1461663357138795,9,12,-12,-48,-18,21,34,22
1461663357139795,9,127,-10,17,1,-13,-42,40
1461663357139795,-12,-11,-1,33,34,24,24,-1
1461663357152803,-25,0,-1,-1,-10,-29,-74,-50
1461663357152803,31,96,17,30,1,-30,-19,-4
1461663357158809,-11,21,3,-22,-7,-6,-66,-25
1461663357158809,-10,-59,21,-35,-37,-56,-72,-2
1461663357174862,17,-84,-30,-34,-21,4,58,22
1461663357174862,-9,-128,-11,-36,-4,35,54,-10
1461663357175820,-33,-6,48,94,58,40,70,28
1461663357175820,22,-23,-51,-39,-19,-8,-10,-5
1461663357196858,-3,-36,-18,14,-3,-28,-30,-12
1461663357196858,-3,-6,-48,16,5,-18,-26,12
1461663357197836,13,-66,19,-71,-44,-18,4,3
1461663357197836,-11,44,-25,47,53,39,10,-13
1461663357219851,33,127,31,44,19,-16,-56,-11
1461663357219851,-19,-93,-39,-22,-25,-18,-6,-11
1461663357220852,-13,-90,-23,-15,-13,26,38,7
1461663357220852,-17,-128,21,-128,-90,15,76,11
1461663357234862,6,-79,41,91,85,8,-43,-16
1461663357234862,-11,122,5,57,49,6,-38,-4
1461663357235862,-2,122,-21,-35,1,-17,-29,-5
1461663357235862,11,127,20,-53,-48,-64,-77,-20
1461663357256878,-19,34,-8,-27,-35,27,33,3
1461663357256878,11,111,-19,-17,-5,-29,-50,-6
1461663357257878,-20,53,7,-18,-33,-13,62,2
1461663357257878,33,23,4,23,31,31,17,9
1461663357272889,3,-28,15,-12,13,8,41,14
1461663357272889,-65,-56,1,24,6,21,24,-5
1461663357278898,-42,-7,-37,3,-8,-2,-24,-5
1461663357278898,12,-20,14,22,29,-5,-3,-11
1461663357294904,-10,-32,-24,-39,-51,-33,-67,-26
1461663357294904,15,-19,-20,-3,7,12,38,17
1461663357294904,5,-1,7,13,-14,-15,-22,15
1461663357294904,17,1,49,62,42,10,4,13
1461663357316977,-63,-20,-16,-10,-3,19,52,-3
1461663357316977,42,-7,54,-80,-50,-32,-73,-52
1461663357317920,-19,7,-21,91,45,-4,-25,-13
1461663357317920,-19,2,-29,15,24,3,-32,2
1461663357340938,44,-10,-27,-18,-27,-1,22,22
1461663357340938,-38,-2,14,-55,-46,-15,71,12
1461663357341937,25,21,31,22,60,29,21,-17
1461663357341937,-49,7,-2,-57,-38,-14,20,6
1461663357353965,96,-31,-1,-38,4,30,-17,64
1461663357353965,22,6,29,127,26,-24,-69,-36
1461663357369977,-42,3,-73,-22,-7,-20,-22,-28
1461663357369977,9,-3,7,9,10,17,21,8
1461663357379029,34,-26,-8,-4,-10,5,-10,2
1461663357379029,-10,2,16,72,31,-1,43,18
1461663357379965,-13,29,-1,-59,-13,17,30,3
1461663357379965,-58,-8,-25,10,-14,1,42,-15
1461663357392974,39,-18,-11,7,1,-2,-53,24
1461663357392974,0,11,17,45,10,-24,-60,-12
1461663357399007,-61,23,-2,-11,22,24,67,-51
1461663357399007,51,-6,-5,-109,-42,24,-64,8
1461663357414002,56,-5,22,83,3,-65,-17,26
1461663357414002,-70,2,-18,34,28,16,21,-24
1461663357421049,51,-3,22,-71,-45,-11,0,-28
1461663357421049,68,-6,-41,-125,-79,15,9,18
1461663357437057,1,-4,39,86,67,2,-35,26
1461663357437057,-46,0,-7,-44,17,2,-27,-29
1461663357438058,21,-2,-45,-27,-30,4,21,-37
1461663357438058,-37,-3,6,119,73,33,-1,16
1461663357453069,80,-12,-53,-56,-32,-44,-1,30
1461663357453069,45,7,-12,-90,-36,-18,-32,-15
1461663357459084,13,-4,123,-2,-37,2,28,2
1461663357459084,36,2,-32,80,78,36,29,61
1461663357474131,-116,-11,-15,-45,-31,-26,-80,-67
1461663357474131,10,-2,8,-27,11,45,16,50
1461663357481087,-2,26,33,-11,-37,-62,-67,-3
1461663357481087,-13,-9,-3,3,-24,-54,-24,-46
1461663357497113,-21,-5,-10,-5,6,19,35,13
1461663357497113,-45,-11,17,-21,-3,34,41,-11
1461663357498103,-5,5,-73,-34,19,32,14,9
1461663357498103,-40,-8,6,-28,-74,-55,-47,9
1461663357513111,71,-4,-21,29,54,10,14,9
1461663357513111,84,5,48,-17,-17,12,36,-24
1461663357519117,-57,10,-48,83,43,8,-11,-27
1461663357519117,30,-8,14,-128,-69,-41,-1,27
1461663357535141,27,-13,-62,-36,-6,40,26,55
1461663357535141,38,16,11,4,40,47,126,-1
1461663357541142,-42,-5,24,32,17,-13,-76,-51
1461663357541142,-13,2,-20,13,21,-12,-18,-27
1461663357558154,-98,-5,33,-16,-26,7,52,-7
1461663357558154,29,-1,-48,10,-26,-58,-107,13
1461663357559167,-8,4,37,-9,-3,-17,-1,48
1461663357559167,43,-12,32,14,10,15,31,5
1461663357573180,-33,9,23,3,-7,4,32,10
1461663357573180,-96,-5,-26,-56,-44,16,55,-20
1461663357579228,-6,2,-20,19,24,36,10,-19
1461663357579228,17,-2,-3,-43,-4,-34,-40,3
1461663357594192,53,-14,-14,53,7,8,-2,6
1461663357594192,17,13,6,47,3,-4,-3,-53
1461663357601197,-37,7,-11,-56,21,8,12,-50
1461663357601197,40,-8,4,93,67,34,1,52
1461663357617209,-30,-6,38,-128,-42,-2,74,64
1461663357617209,-35,-7,-25,22,-23,-26,-58,-30
1461663357618191,3,3,9,59,7,-6,-21,-25
1461663357618191,-7,-2,44,8,7,27,81,-39
1461663357633209,-119,15,-38,-66,-52,-48,-92,-21
1461663357633209,26,-9,20,24,0,-55,-64,47
1461663357639213,95,-5,21,-15,3,25,20,36
1461663357639213,-128,-3,-7,-26,-26,-22,15,-21
1461663357654224,105,-12,34,-11,-22,11,-10,-1
1461663357654224,-106,1,-22,26,47,39,71,33
1461663357661229,24,-8,-32,-6,-6,-8,-39,-23
1461663357661229,-6,-2,4,26,-24,-3,-26,-8
1461663357677265,50,-7,0,79,40,10,1,-15
1461663357677265,60,3,7,-71,-37,-6,6,-48
1461663357678240,-40,11,43,9,37,21,26,-53
1461663357678240,11,-9,-35,86,54,36,38,49
1461663357693252,4,-2,-12,-117,-80,-37,15,55
1461663357693252,-16,-1,-6,44,3,-9,-81,-5
1461663357699281,14,3,5,17,-9,-28,-34,-15
1461663357699281,-43,-6,11,-44,-31,-32,-34,-39
1461663357714291,30,-3,9,27,49,69,97,-4
1461663357714291,-42,-3,14,-28,5,28,44,12
1461663357721296,52,2,-26,-34,-63,-66,-76,44
1461663357721296,-81,-7,-32,-48,-62,-53,-102,-52
1461663357737283,70,-4,42,43,49,3,-20,-15
1461663357737283,64,14,24,73,62,43,53,20
1461663357738284,-68,-8,-16,9,21,34,43,11
1461663357738284,56,-15,-22,-71,-31,-5,9,18
1461663357753294,8,4,-8,-15,-13,-9,-27,-23
1461663357753294,-22,2,0,-27,-20,6,20,-25
1461663357759298,-24,4,-26,39,48,18,8,-9
1461663357759298,24,-10,-3,64,55,17,17,37
1461663357775299,-6,2,12,-20,-10,-12,-10,-11
1461663357775299,9,1,-25,19,5,-10,43,49
1461663357781359,5,-3,-10,-27,-48,-12,10,1
1461663357781359,-19,-2,11,-19,-5,12,-72,-36
1461663357797370,18,0,-14,-7,-31,-70,-80,-29
1461663357797370,107,-6,10,2,-6,-6,14,23
1461663357798326,-46,0,2,-15,-2,29,19,15
1461663357798326,75,-7,6,0,2,-29,35,-13
1461663357813325,4,3,0,-32,-25,31,-2,-27
1461663357813325,-10,6,15,-9,2,13,-6,10
1461663357819330,-13,-3,-21,-38,22,8,8,17
1461663357819330,23,-9,10,6,32,16,-4,7
1461663357850438,-29,6,5,13,-2,-22,-11,-22
1461663357850438,-22,-3,-16,34,27,6,32,-5
1461663357851380,47,-6,-11,-47,-7,15,-7,11
1461663357851380,-74,-3,11,48,-1,-18,-16,1
1461663357857396,-24,-1,-13,-8,7,12,22,17
1461663357857396,-48,-7,-17,-36,-32,-4,1,-30
1461663357858396,-41,-5,18,33,3,-17,23,-1
1461663357858396,44,-8,3,-39,-18,-12,-11,13
1461663357873404,37,5,-7,19,3,7,21,3
1461663357873404,-19,4,6,11,-3,-33,-67,-10
1461663357879436,-28,5,-5,-4,-19,-7,8,13
1461663357879436,29,4,-5,-7,-1,52,38,-2
1461663357894438,-23,3,9,10,4,8,15,-16
1461663357894438,-12,-4,-11,-28,-13,-5,-1,-6
1461663357901443,18,-7,-18,-60,-34,-28,-12,7
1461663357901443,16,2,36,72,67,1,-4,2
1461663357917454,-37,-52,1,50,42,8,-14,-12
1461663357917454,2,-40,-19,-38,-2,-8,-9,-5
1461663357918434,10,-128,4,54,13,0,-22,-9
1461663357918434,44,43,19,-5,-17,3,1,13
1461663357933435,25,127,-11,-11,-4,-5,-7,4
1461663357933435,-39,66,-6,-2,-5,6,37,12
1461663357939456,-37,124,8,-1,-6,20,-33,-28
1461663357939456,-23,112,-24,-29,-19,-19,-10,-14
1461663357954450,40,127,-12,-10,-21,-59,-48,15
1461663357954450,14,-6,8,-8,-12,-27,-41,8
1461663357961495,-8,-48,5,10,7,54,18,7
1461663357961495,58,-68,-6,-11,-4,-5,22,-7
1461663357977506,-37,-58,-13,-40,-15,19,13,-18
1461663357977506,-55,-98,-8,20,-3,-5,10,-2
1461663357977506,17,-94,18,2,5,-21,3,5
1461663357977506,6,-10,-7,-3,17,19,3,-1
1461663357993534,-19,9,21,3,13,5,3,-16
1461663357993534,21,-48,-4,-4,0,6,-8,0
1461663357999499,4,-13,8,5,4,-7,2,10
1461663357999499,-7,15,-6,-11,-12,-7,-7,-5
1461663358014510,10,9,-3,-22,-20,-2,-4,-12
1461663358014510,-2,-31,5,2,11,13,-7,3
1461663358021557,-27,23,3,20,2,-6,1,13
1461663358021557,-3,-6,-15,-15,-22,-25,-9,-5
1461663358037522,-26,-30,-6,7,1,16,7,-14
1461663358037522,52,48,14,-1,-2,-20,3,2
1461663358037522,-12,56,-2,10,5,-7,16,19
1461663358037522,8,70,-3,-3,-4,8,-2,-3
1461663358052534,-4,72,-11,-8,-7,0,-26,-16
1461663358052534,-5,-8,-6,-11,-11,13,11,1
1461663358058536,18,-52,-3,0,-15,-20,-5,8
1461663358058536,6,-11,17,10,21,6,9,0
1461663358075537,-11,-18,19,43,31,13,14,-3
1461663358075537,-19,28,5,12,11,5,-3,3
1461663358081541,17,47,-1,13,2,-6,-3,-1
1461663358081541,-9,20,-9,-16,-20,0,-5,-6
1461663358098553,4,-92,-7,-11,-10,-13,-11,-9
1461663358098553,-8,-113,-5,-7,-1,-3,-13,-1
1461663358099554,-1,-128,0,-12,-3,-2,3,4
1461663358099554,-4,-84,-4,-1,-6,-22,-8,4
1461663358121571,-16,-84,-8,-8,-1,8,2,2
1461663358121571,12,-65,-2,-9,-5,10,18,28
1461663358121571,37,-21,5,7,17,53,6,7
1461663358121571,-40,-32,-7,0,-4,-22,-12,-44
1461663358135580,-63,34,2,5,-6,-9,-11,-33
1461663358135580,13,-67,5,-1,-1,0,13,21
1461663358141583,44,-26,2,3,-2,-13,8,29
1461663358141583,-6,57,2,-7,-7,11,10,-13
1461663358157594,-43,89,-11,-12,-9,-8,0,-25
1461663358157594,15,127,-13,-16,-1,9,1,18
1461663358157594,49,104,53,56,34,-3,-3,22
1461663358157594,-8,34,-45,-12,-1,4,-2,-18
1461663358172611,-43,68,13,10,-4,2,4,-22
1461663358172611,14,53,-16,-5,-2,2,-7,17
1461663358178613,40,23,-9,-16,-15,-9,-9,16
1461663358178613,-16,-5,18,-5,-6,-3,-4,-22
1461663358211686,-42,12,8,-1,-1,6,0,-17
1461663358211686,19,-6,-4,-3,-1,3,-7,20
1461663358212672,36,-14,-6,-10,-5,-29,-5,16
1461663358212672,-21,-53,2,1,-2,22,7,-18
1461663358217690,-27,-39,-14,-4,3,-2,3,-11
1461663358217690,17,-8,14,12,8,9,-2,3
1461663358217690,22,1,-16,-11,-4,-18,-5,7
1461663358217690,-14,-6,-2,5,4,7,8,10
1461663358239702,-23,1,-1,4,3,4,8,2
1461663358239702,8,20,7,3,2,0,-5,-6
1461663358240703,20,14,-8,-5,-6,-7,0,-1
1461663358240703,-7,6,1,-3,-6,-7,-7,-19
1461663358255714,-18,26,10,-5,-4,0,-2,-2
1461663358255714,2,11,-20,0,4,-3,1,32
1461663358261718,13,13,0,-3,-6,4,-2,5
1461663358261718,-7,-12,-8,5,3,-3,-2,-25
1461663358276827,-17,7,-3,-6,-6,-3,-1,-13
1461663358276827,9,7,19,22,11,-3,-3,13
1461663358283836,11,2,3,1,2,3,-3,11
1461663358283836,-4,2,8,1,-1,4,-1,-16
1461663358299814,-11,1,-7,-6,-5,-9,1,-13
1461663358299814,-1,-7,-6,-10,-6,-3,-5,12
1461663358300790,8,0,-5,-7,-4,4,0,13
1461663358300790,-3,14,10,1,1,-2,0,-17
1461663358315812,-11,-14,-14,-3,1,0,-2,-11
1461663358315812,1,9,1,0,-3,-3,0,13
1461663358329867,6,1,-18,-6,-1,4,-3,11
1461663358329867,-4,-9,-4,-3,-5,-9,-3,-16
1461663358337814,-10,-7,0,3,1,5,-1,-6
1461663358337814,5,-1,5,-4,-2,0,0,11
1461663358343832,8,2,-4,-2,-1,-2,0,6
1461663358343832,-7,4,2,-4,-2,0,-1,-15
1461663358352825,-12,-1,3,6,5,-3,-2,-1
1461663358352825,4,1,-1,-2,-1,-3,-2,8
1461663358358843,8,-7,2,-4,-2,-1,-2,0
1461663358358843,-7,0,-2,4,0,-1,0,-7
1461663358373894,-7,-2,-3,-3,-3,1,-2,-3
1461663358373894,4,-6,-1,-6,-5,-5,-3,3
1461663358381844,8,-3,0,0,0,2,0,1
1461663358381844,-5,-5,1,-2,0,1,-3,-7
1461663358396912,-10,-7,0,3,3,-2,-1,-6
1461663358396912,5,6,-1,-2,-2,-2,0,2
1461663358420928,4,-6,-4,-6,-4,0,0,1
1461663358420928,-5,-6,-5,-2,-3,-1,0,-6
1461663358422931,-6,-1,-3,-1,0,0,-1,-4
1461663358422931,3,3,3,1,0,-2,-5,4
1461663358423899,3,-4,-3,0,0,1,-1,1
1461663358423899,-5,-3,-1,-3,-2,-2,-1,-3
1461663358433938,-6,-3,1,2,-1,-2,-3,0
1461663358433938,5,2,3,3,2,-1,2,3
1461663358441898,7,6,1,-2,0,-2,1,0
1461663358441898,-14,-19,-10,-3,-4,-5,-1,-6
1461663358456907,-4,-1,0,-1,0,0,0,0
1461663358456907,2,-5,0,-1,-2,1,-1,0
1461663358463959,4,3,-2,0,1,-1,0,-1
1461663358463959,5,4,4,-2,-1,-2,0,-2
1461663358479971,-8,-7,-1,1,-2,-2,-1,0
1461663358479971,0,-1,-1,0,-1,-2,0,-5
1461663358480930,-1,-3,-1,0,-1,-2,-1,0
1461663358480930,-3,-3,0,-1,-1,-1,0,24
1461663358493981,-2,-3,-1,-2,0,-2,1,-1
1461663358493981,3,1,0,-1,-1,0,1,-25
1461663358501032,0,-8,-4,-3,-1,0,-1,-11
1461663358501032,-5,2,2,0,-3,-2,-3,18
1461663358516040,0,5,1,1,0,-1,0,10
1461663358516040,4,-2,0,-1,-2,0,1,-17
1461663358524046,1,-3,-2,1,-1,-1,0,-11
1461663358524046,-8,1,0,-1,0,-2,-1,15
1461663358540089,0,2,-1,-2,-2,-1,-2,9
1461663358540089,2,-4,-1,-2,-1,0,-3,-17
1461663358540089,4,0,0,0,1,1,-1,-11
1461663358540089,-6,-10,-5,-2,-5,-1,-2,15
1461663358554121,-6,0,-3,-1,-3,-1,-1,4
1461663358554121,6,4,1,-3,0,0,1,-14
1461663358561127,-2,-7,-4,-2,-2,-1,0,-6
1461663358561127,-7,-7,0,-5,-2,-1,-1,13
1461663358576137,-7,-6,0,2,0,-1,-2,-1
1461663358576137,2,1,2,4,0,0,-2,-11
1461663358584132,0,0,-1,-2,-2,-2,-3,-2
1461663358584132,0,-1,-4,-4,-3,-1,-3,7
1461663358602133,1,0,0,3,2,-1,1,2
1461663358602133,4,0,-1,0,-1,-1,1,-5
1461663358603135,0,-1,-2,0,-2,0,0,-2
1461663358603135,-2,2,-2,-3,-2,0,-3,4
1461663358619146,3,-4,-3,0,0,1,-1,1
1461663358619146,-5,-3,-1,-3,-2,-2,-1,-3
1461663358625165,-6,-3,1,2,-1,-2,-3,0
1461663358625165,5,2,3,3,2,-1,2,3
1461663358626150,7,6,1,-2,0,-2,1,0
1461663358626150,-14,-19,-10,-3,-4,-5,-1,-6
1461663358632196,-1,-5,-2,-2,-2,-1,-1,-2
1461663358632196,-2,0,-1,2,1,0,-1,2
1461663358649168,1,1,-1,-3,-1,-1,0,2
1461663358649168,-3,-3,-1,-2,-1,-1,-1,-5
1461663358650167,-2,-1,-2,-2,0,-1,0,-2
1461663358650167,0,4,3,2,1,0,-2,2
1461663358660177,2,3,-2,-1,-2,0,-1,0
1461663358660177,-3,-12,-3,-1,2,1,0,-3
1461663358660177,2,2,-1,-2,0,0,1,0
1461663358660177,1,4,-1,-7,-6,-3,-1,1
1461663358676203,-2,-4,3,16,10,1,2,-1
1461663358676203,1,5,-1,-4,-2,-1,-1,-2
1461663358681206,-1,-2,1,6,2,0,0,-1
1461663358681206,0,-3,0,-2,0,-1,1,0
1461663358704265,-1,4,-3,-16,-10,-3,-4,-1
1461663358704265,0,-7,-2,5,-2,-3,-1,-2
1461663358705208,2,8,1,0,0,-2,0,3
1461663358705208,-2,1,0,2,-1,0,-1,1
1461663358720219,-1,-2,-3,-4,0,-1,-2,-2
1461663358720219,0,0,-1,-4,-1,0,3,0
1461663358720219,-1,-1,-1,-5,-1,0,-2,-2
1461663358720219,-2,-2,-2,1,2,-1,0,0
1461663358735228,-2,-3,-2,-3,-3,0,2,-1
1461663358735228,1,-3,-2,-2,-1,-1,0,-2
1461663358741238,-1,-3,-1,3,3,-1,0,-2
1461663358741238,0,7,0,-1,1,-2,0,0
1461663358756271,1,-3,2,1,0,-1,-2,0
1461663358756271,-1,0,-2,-2,0,0,0,-2
1461663358764264,-1,-3,0,0,-1,-1,0,1
1461663358764264,-4,-7,-6,-1,-2,-2,-1,-1
1461663358779258,2,5,0,-5,-1,-1,-3,-2
1461663358779258,-4,-4,-4,-6,-3,-4,-4,-5
1461663358781276,-3,-3,-2,0,-3,-4,-4,-3
1461663358781276,-5,-3,-1,1,-1,-1,-2,-1
1461663358795270,-2,-5,0,2,-1,-2,-2,-2
1461663358795270,2,0,1,-1,-1,-2,-2,-1
1461663358801288,1,-1,-3,-6,-3,-3,-2,-1
1461663358801288,-6,-1,-5,-5,-5,-3,-3,-2
1461663358816322,0,-2,-1,2,2,0,1,0
1461663358816322,-2,0,-2,-2,-3,-1,-2,-1
1461663358824329,2,0,-1,0,-1,-1,0,-1
1461663358824329,6,-2,-1,0,-1,-3,-3,-2
1461663358839318,3,1,1,-2,-1,-1,-1,-1
1461663358839318,-4,0,-1,0,-1,-1,0,-1
1461663358840314,-4,-4,-2,-1,0,-1,0,1
1461663358840314,2,-2,0,-2,1,-1,-3,-1
1461663358855341,0,-1,0,-1,-3,-1,0,-1
1461663358855341,-1,-1,-1,-2,0,1,0,0
1461663358861345,-4,1,2,7,1,-1,-1,-1
1461663358861345,-1,-4,2,1,-1,1,1,-2
1461663358876356,1,5,0,0,-4,-3,-1,-3
1461663358876356,-4,-11,-4,-6,-1,1,0,0
1461663358884348,-4,-6,-4,-5,-5,0,-3,-3
1461663358884348,0,-1,-4,-10,-6,-1,-2,0
1461663358899359,0,-2,-1,14,4,2,1,-1
1461663358899359,3,-1,1,5,1,-2,-3,0
1461663358900346,-2,-2,-1,1,-1,0,-1,0
1461663358900346,-2,2,0,-2,0,-2,-1,-2
1461663358915373,-4,-1,-2,-9,-4,0,0,-1
1461663358915373,3,2,-2,2,-2,-2,-1,1
1461663358921419,3,2,-1,3,3,1,2,1
1461663358921419,-3,-3,-1,2,2,0,1,1
1461663358936385,0,-1,2,-3,1,3,1,1
1461663358936385,4,3,2,1,1,1,0,-2
1461663358944391,2,4,2,-1,0,-1,-1,0
1461663358944391,-5,-3,-2,-1,-2,-1,-2,-1
1461663358959402,-2,3,0,-1,3,-1,0,1
1461663358959402,1,-1,0,3,0,-1,0,2
1461663358960401,2,0,-2,-4,0,0,-1,-1
1461663358960401,0,2,0,2,0,-1,-3,-2
1461663358975399,0,-4,-1,0,1,-2,-3,0
1461663358975399,2,2,-3,-3,-3,0,-1,-1
1461663358981460,-2,-2,-4,-5,0,-1,-1,0
1461663358981460,-2,-3,1,9,1,-1,-1,-2
1461663358998446,-2,-2,-2,-4,0,-2,-2,0
1461663358998446,-2,3,3,2,0,0,-1,1
1461663359004430,-1,-2,-2,-6,-3,-1,0,-1
1461663359004430,2,1,2,0,0,0,-1,-1
1461663359019428,6,2,0,-2,-1,-2,0,-2
1461663359019428,-6,-4,1,0,2,-1,1,1
1461663359026452,-5,-4,-3,-4,-4,-2,-3,0
1461663359026452,0,-2,-5,-6,-2,-1,-1,-3
1461663359035442,1,1,-1,5,1,-1,1,-2
1461663359035442,0,-2,-4,-6,0,-1,0,0
1461663359041456,1,3,2,1,-1,-2,0,-1
1461663359041456,-2,-1,0,-1,-2,-3,-3,-2
1461663359056467,4,6,-1,-3,-1,2,-2,1
1461663359056467,-6,-9,0,1,0,0,-1,-2
1461663359064472,-4,-7,0,0,0,0,-2,-1
1461663359064472,0,3,-1,-2,-1,0,-2,-3
1461663359079483,-1,-2,-2,2,0,-2,-1,-2
1461663359079483,1,-2,-1,0,-1,-2,1,2
1461663359080480,0,-4,-3,2,1,-1,0,-2
1461663359080480,-4,-4,-2,-2,-1,-2,-1,-2
1461663359095482,0,2,-1,-3,-4,-3,-3,-2
1461663359095482,0,2,0,-2,0,1,-1,1
1461663359101486,-2,-2,0,2,1,-1,-2,1
1461663359101486,0,2,-2,-4,-3,-1,-1,-2
1461663359116508,-3,-8,0,5,2,-1,-1,-2
1461663359116508,1,6,-1,0,0,-2,-1,1
1461663359123514,-1,1,2,-2,-2,-1,-1,-1
1461663359123514,1,4,-1,-4,-5,-1,-1,-3
1461663359139514,-1,-3,-1,-4,-1,1,-1,-1
1461663359139514,-4,-3,-1,3,-1,-3,0,-2
1461663359140515,-2,0,0,-3,-1,-1,-1,0
1461663359140515,2,4,0,2,-2,-1,-2,-2
1461663359155525,-3,-7,-1,-2,-2,-1,-2,-1
1461663359155525,5,6,-1,-2,0,0,1,0
1461663359161586,-2,-4,-3,-2,-3,-2,-2,0
1461663359161586,0,-2,-1,-2,-2,0,-2,-2
1461663359176597,1,-1,-3,-3,-4,0,-2,-1
1461663359176597,-3,-3,-1,0,2,0,0,0
1461663359184545,-2,5,3,-1,-1,-2,2,-1
1461663359184545,-3,-6,-1,2,2,-1,0,-4
1461663359198573,1,4,-3,-3,-2,-2,1,0
1461663359198573,-2,-8,1,1,0,2,-1,1
1461663359206560,-1,6,1,-3,-3,-1,1,-1
1461663359206560,-1,-2,-1,-1,0,-1,0,-3
1461663359215570,-2,0,1,4,2,1,-1,0
1461663359215570,1,2,-2,-3,-1,-2,-3,0
1461663359229641,-2,-3,-3,0,-2,-2,-3,-1
1461663359229641,-3,-3,-2,-6,0,0,1,-3
1461663359236601,-1,-4,-4,-6,-5,-5,-1,-3
1461663359236601,2,5,3,7,6,0,2,3
1461663359243607,3,-2,0,-3,0,-1,-2,-1
1461663359243607,-2,-4,-2,2,-2,-3,-1,-4
1461663359258617,-1,0,0,-6,-3,-2,-1,-2
1461663359258617,-4,-6,-2,-4,-3,-3,-1,0
1461663359266622,-2,2,1,1,-2,-1,0,0
1461663359266622,-1,-1,-2,-3,-2,-4,-3,-2
1461663359283617,-3,-3,0,3,1,0,0,-1
1461663359283617,1,-3,1,0,-3,-3,1,-1
1461663359284630,0,11,-1,-3,-2,-1,0,-2
1461663359284630,1,-7,-5,-3,-3,-2,0,-2
1461663359296638,2,3,2,2,2,0,-1,-1
1461663359296638,-3,-1,-3,-5,-3,-1,-1,0
1461663359303647,-2,-8,-3,-4,-2,-1,0,0
1461663359303647,-3,-2,-1,7,2,-1,-1,-2
1461663359318641,0,1,2,-1,0,-1,0,0
1461663359318641,0,3,0,-5,-3,-1,1,0
1461663359326708,1,-5,-5,-1,-1,0,-3,0
1461663359326708,-2,2,1,-3,-1,0,-3,-2
1461663359335652,-2,-7,0,-1,0,-2,0,0
1461663359335652,1,5,1,-4,-2,0,-2,0
1461663359341674,-1,2,-1,0,-3,-1,0,1
1461663359341674,-1,1,-3,-7,-6,0,-1,-2
1461663359356684,-3,-10,-1,9,5,2,0,-2
1461663359356684,0,-2,-4,5,1,-1,-1,0
1461663359363684,-1,-4,-4,-5,-4,-3,-4,-2
1461663359363684,-2,1,0,6,4,-1,-1,-2
1461663359378741,2,6,0,-4,-4,-2,0,0
1461663359378741,-1,-1,-1,-2,-2,0,-1,0
1461663359386700,2,-2,2,7,3,1,-1,-1
1461663359386700,-6,-10,-10,-10,-4,-2,-1,0
1461663359401699,1,2,0,-6,-4,-2,-1,0
1461663359401699,1,1,3,4,2,0,0,1
1461663359402700,-5,-7,-3,-3,-2,0,0,-3
1461663359402700,0,-3,0,-3,-1,-1,-2,-3
1461663359416768,-3,-5,-4,-3,-1,-2,-1,-1
1461663359416768,0,0,-4,-4,-2,-2,0,0
1461663359423771,4,2,2,0,-1,-2,-2,-1
1461663359423771,-6,1,-2,-1,-4,-1,-1,-4
1461663359438737,-1,1,-1,-2,-1,2,-2,-1
1461663359438737,-3,-1,-1,-1,-2,-2,-3,0
1461663359446789,-4,-1,-2,1,0,0,-1,-2
1461663359446789,1,0,0,0,1,-1,0,-1
1461663359461753,-2,4,1,-3,0,-1,-2,1
1461663359461753,0,2,4,9,3,2,1,0
1461663359469749,-6,-9,-4,-3,0,0,-3,-2
1461663359469749,1,4,1,0,-2,-4,-2,-4
1461663359476810,0,1,-4,-2,-2,0,0,-1
1461663359476810,-2,-4,1,-2,-3,0,-1,0
1461663359483818,0,-3,-1,-1,1,-3,-1,1
1461663359483818,0,2,5,1,-2,1,-1,-3
1461663359498796,4,6,0,4,-1,-2,0,0
1461663359498796,-4,-13,-5,-6,-4,0,-2,-1
1461663359506802,0,2,-2,-7,-4,2,1,1
1461663359506802,-3,-4,1,6,2,0,0,-3
1461663359521800,1,-3,-2,-1,-1,-2,-1,-1
1461663359521800,4,3,1,-2,1,0,-1,0
1461663359522785,-7,-4,-2,4,2,-1,-4,-2
1461663359522785,3,4,-5,-11,-7,-2,-6,-3
1461663359536810,-7,-10,-4,0,-3,1,-1,1
1461663359536810,0,6,-3,-7,-4,-4,0,0
1461663359543815,1,0,1,3,-1,-1,0,1
1461663359543815,-2,2,1,-2,0,-4,-1,0
1461663359558826,1,0,-2,0,1,0,0,0
1461663359558826,2,-1,-2,-5,-1,1,0,2
1461663359566818,1,-2,-2,1,-1,-2,0,-3
1461663359566818,-1,-3,-1,1,0,1,1,-3
1461663359582010,1,-3,-1,-5,-3,-3,0,-2
1461663359582010,-2,8,0,-2,-1,-2,-2,-1
1461663359582950,-5,-12,-2,-1,0,2,-1,0
1461663359582950,-3,-3,0,0,0,0,0,-3
1461663359596959,1,-1,-4,-13,-4,0,-1,0
1461663359596959,0,7,2,8,1,-1,0,0
1461663359603963,-1,-2,-3,-7,-6,-4,0,-2
1461663359603963,-2,-8,-3,-5,-1,-1,-3,-2
1461663359618974,-3,-3,-5,-3,0,1,-2,0
1461663359618974,2,-1,-1,-6,-1,-1,-1,2
1461663359627014,-9,2,-2,-6,-1,0,0,-1
1461663359627014,0,-2,-5,-5,-5,0,-2,-4
1461663359642001,-2,2,4,10,-1,-1,-1,-1
1461663359642001,-1,-1,1,6,2,1,0,-1
1461663359642990,1,5,0,-3,-2,-3,-1,-1
1461663359642990,-1,-2,-6,-4,-1,-2,0,-1
1461663359656011,-4,1,2,0,3,0,-1,-1
1461663359656011,-2,-2,-4,-8,-4,-2,-1,1
1461663359664051,3,-1,-2,-4,-6,-2,-2,-1
1461663359664051,0,-2,-2,8,1,-2,-4,-3
1461663359679086,3,-1,1,3,2,0,3,4
1461663359679086,-5,-3,4,0,2,-3,0,1
1461663359687046,4,4,-4,-5,-2,-2,-1,-4
1461663359687046,8,2,1,-6,-3,-1,-5,-5
1461663359702039,-4,-1,-3,4,-3,-2,-1,-1
1461663359702039,-5,2,0,-1,3,3,8,4
1461663359703038,1,4,-1,-9,-3,-4,-3,0
1461663359703038,6,-3,2,4,-4,0,-3,-3
1461663359725048,3,-7,-1,3,-1,7,0,4
1461663359725048,-7,-4,2,3,1,-2,-6,1
1461663359725048,-5,-13,2,13,9,2,1,-3
1461663359725048,7,18,2,3,3,-1,-4,-6
1461663359739061,-3,0,0,-4,-3,-3,-1,0
1461663359739061,-1,8,-1,-3,-4,-1,22,5
1461663359755087,1,-27,-9,-4,-4,2,0,0
1461663359755087,-3,-3,-2,-2,-2,-6,-23,-9
1461663359762077,-12,-1,-1,-7,-2,-6,-17,-4
1461663359762077,-4,-1,-1,7,2,-5,-7,0
1461663359763078,5,8,2,3,1,-1,-4,-4
1461663359763078,-5,-4,0,-2,-2,2,19,-4
1461663359776087,-3,-4,-2,-1,-3,0,9,6
1461663359776087,-4,9,1,-4,-3,2,1,7
1461663359784093,6,5,1,5,-1,1,2,-4
1461663359784093,-5,-7,-1,-16,-11,0,-3,-7
1461663359799104,1,14,2,17,11,3,0,3
1461663359799104,-1,-8,-3,5,6,3,-5,2
1461663359806106,2,3,0,3,1,-3,-14,-7
1461663359806106,-2,-6,0,1,3,2,8,-2
1461663359822133,3,2,7,1,-1,-2,6,4
1461663359822133,-1,-4,-1,-9,-5,-3,-7,0
1461663359823118,1,1,-7,3,2,-3,-1,-1
1461663359823118,2,10,3,-1,-2,-2,-1,-4
1461663359836127,4,1,-6,-12,-4,0,11,7
1461663359836127,-2,-18,-2,8,3,8,5,7
1461663359844158,-10,-3,1,0,-4,-2,-20,-14
1461663359844158,-1,-1,-7,4,-4,-15,-20,-6
1461663359859167,-9,-2,2,-1,-4,-5,-16,4
1461663359859167,-2,-5,-11,-21,-11,-3,0,-3
1461663359866173,7,10,10,5,3,3,11,1
1461663359866173,-9,-5,2,17,10,6,4,-1
1461663359882173,3,0,0,-4,0,-10,-11,-1
1461663359882173,-1,-2,-14,-21,-3,-1,-2,1
1461663359883173,-7,-7,-4,1,-15,-3,11,-2
1461663359883173,12,9,-5,-38,-12,-3,-2,-1
1461663359896208,-15,-17,8,15,4,-2,0,-1
1461663359896208,-11,14,-1,-14,1,1,0,-1
1461663359904176,20,1,5,22,8,14,28,0
1461663359904176,1,-16,-8,10,6,1,-16,-2
1461663359920207,-9,-2,-15,-7,-2,-5,18,3
1461663359920207,-1,8,4,-4,-9,-4,-45,-3
1461663359926233,-12,18,18,-9,-5,4,26,-5
1461663359926233,9,-4,1,20,10,14,34,1
1461663359942210,10,7,-2,-10,-1,-7,-34,4
1461663359942210,-18,-7,4,14,-10,-13,5,-6
1461663359943211,-6,4,-21,-16,-2,-18,-37,-8
1461663359943211,18,-1,-14,-33,-15,-4,14,7
1461663359958222,-4,4,3,13,19,22,46,7
1461663359958222,5,-2,-9,-7,-10,2,-5,0
1461663359964219,-1,-35,11,36,13,-1,-28,-3
1461663359964219,-6,24,-11,-5,14,-8,-23,-9
1461663359979231,-5,-18,16,27,-1,-3,2,-1
1461663359979231,18,28,7,-3,-2,11,13,2
1461663359986236,-8,-11,-8,-22,-7,-5,15,0
1461663359986236,6,25,-9,-24,-8,-1,-16,-1
1461663360002244,-8,-32,-6,8,-4,11,74,13
1461663360002244,-8,-20,5,55,24,-4,-57,-14
1461663360003244,12,5,7,15,0,-5,-17,-9
1461663360003244,4,16,17,-8,-12,-11,14,10
1461663360018008,-2,14,1,-37,-23,-23,-38,-14
1461663360018008,-6,6,-4,-20,0,20,87,8
1461663360024071,-11,5,-20,-59,-29,-6,-60,-7
1461663360024071,-1,-19,14,20,5,-12,-7,3
1461663360039034,26,35,-2,-19,-10,5,1,-1
1461663360039034,-19,-39,-6,56,33,5,-11,3
1461663360047050,0,-4,-13,-19,-3,-3,20,9
1461663360047050,6,-2,22,51,5,10,21,13
1461663360064041,-27,11,-15,-6,-12,-5,-48,-26
1461663360064041,1,0,15,-61,-34,-13,0,-13
1461663360064041,17,-12,-20,35,46,35,83,29
1461663360064041,-17,-16,-12,-77,-29,18,7,1
1461663360085055,23,68,31,65,40,-17,-86,-17
1461663360085055,-14,8,-13,-36,-22,-31,-29,-12
1461663360085055,5,-40,-4,-12,-16,-2,2,9
1461663360085055,12,-2,18,55,27,12,11,-7
1461663360099064,-38,-61,-25,-30,-17,15,60,20
1461663360099064,14,84,16,9,7,0,-26,4
1461663360106086,-27,80,-3,-18,-26,-27,20,-5
1461663360106086,24,32,-1,2,12,31,-1,-2
1461663360122093,4,-13,-8,-51,-22,-20,-74,-24
1461663360122093,30,14,0,38,0,-43,-30,3
1461663360123082,-6,-51,13,-27,-14,10,58,13
1461663360123082,-37,-29,-17,14,-9,6,-3,-23
1461663360144109,23,-16,8,-49,-17,20,47,12
1461663360144109,-14,-57,-16,1,12,-6,-58,-2
1461663360152103,21,-9,17,22,12,-17,-16,-5
1461663360152103,-7,-107,-10,27,-19,-24,-54,-5
1461663360167151,-5,-27,-40,-50,3,13,51,-1
1461663360167151,25,34,44,29,25,24,77,24
1461663360168114,-12,34,-7,67,32,15,2,4
1461663360168114,10,8,-54,-111,-28,-19,-11,-11
1461663360181161,-24,-115,55,86,4,-27,-40,-22
1461663360181161,-63,-82,-29,-56,-18,-4,-10,-13
1461663360189145,50,98,19,24,13,-19,-25,0
1461663360189145,-15,122,7,20,8,3,8,5
1461663360198135,20,127,-8,-39,-4,34,37,25
1461663360198135,14,86,5,51,16,21,52,0
1461663360204151,-69,-21,2,-54,-49,-41,-71,-20
1461663360204151,31,-10,-4,-29,1,-14,-22,-12
1461663360219149,-4,-30,9,79,63,17,-10,4
1461663360219149,-18,-44,-7,-12,-2,15,34,-7
1461663360226213,49,-55,-17,-78,-29,22,24,8
1461663360226213,6,-55,-4,24,-1,1,-73,-11
1461663360241177,-33,7,17,-34,-12,-42,-25,2
1461663360241177,9,4,12,72,30,-19,-21,-28
1461663360249228,-13,-33,5,-52,-29,0,73,23
1461663360249228,-10,-20,-17,60,38,37,24,22
1461663360266183,-16,5,-37,-1,-9,-9,-56,-26
1461663360266183,23,8,0,-106,-42,-35,-76,-10
1461663360267183,-9,-27,45,86,12,2,-26,-28
1461663360267183,23,-13,-2,37,37,18,112,33
1461663360279221,9,11,-14,18,12,36,22,16
1461663360279221,9,-2,-4,-27,-15,-25,-82,-23
1461663360288257,28,-17,-24,-38,-10,-20,-4,-15
1461663360288257,-75,-5,-2,-50,-14,-7,-2,3
1461663360318250,39,6,10,25,-4,2,50,26
1461663360318250,-43,-6,-3,-25,0,34,20,-1
1461663360319220,30,-22,4,30,19,13,14,9
1461663360319220,3,1,-2,-15,-20,-44,-73,-24
1461663360321229,18,-3,24,22,5,-22,-20,-1
1461663360321229,2,-1,-21,-93,-41,41,35,-11
1461663360324250,-8,-6,58,116,85,24,24,10
1461663360324250,19,-7,5,16,7,-15,54,11
1461663360347265,-12,5,-40,-76,-40,0,-43,1
1461663360347265,-9,4,56,-2,-32,-38,-9,4
1461663360348241,-23,-9,-69,-103,-12,3,-31,-19
1461663360348241,10,-9,69,80,31,22,34,2
1461663360361250,57,-3,27,-90,-23,18,37,15
1461663360361250,4,2,38,89,21,18,20,29
1461663360369257,-56,-6,-35,4,28,-19,-29,-42
1461663360369257,0,-3,17,-21,-2,14,-12,9
1461663360384266,-19,10,-14,-37,-28,-38,-88,-22
1461663360384266,45,5,-28,-32,-20,-21,32,33
1461663360385267,71,-19,13,12,-4,19,-44,1
1461663360385267,4,-7,-16,-22,-23,-10,30,-3
1461663360399276,-76,3,2,-4,-3,-2,-21,-30
1461663360399276,47,15,10,8,4,3,-11,9
1461663360414288,-36,-23,-32,-10,-21,-31,-50,-1
1461663360414288,8,6,-29,3,18,27,126,22
1461663360429298,-84,4,-30,80,29,13,-14,-57
1461663360429298,79,20,-4,-27,-24,-56,-95,-5
1461663360437303,6,-20,38,-56,-32,14,75,29
1461663360437303,25,10,41,19,27,34,-38,-9
1461663360444313,-77,0,-38,-81,-34,-18,-64,-35
1461663360444313,2,10,-95,-28,-17,-24,40,-12
1461663360445313,94,-18,32,26,20,22,24,28
1461663360445313,109,-17,15,-90,-9,-3,5,-7
1461663360459349,-10,18,48,-2,20,22,9,45
1461663360459349,21,9,-34,48,21,-21,-38,16
1461663360466353,-71,-7,-37,-28,-38,-31,-30,5
1461663360466353,-118,-6,3,27,-15,23,-80,-40
1461663360481354,67,4,-82,-95,-41,-63,-12,-44
1461663360481354,-39,-1,46,62,15,14,14,6
1461663360489360,58,-17,-37,27,-3,-29,-45,15
1461663360489360,0,3,34,7,2,-5,41,1
1461663360504351,-26,9,13,-75,-43,35,86,-9
1461663360504351,-106,12,-7,-53,9,27,18,16
1461663360505351,74,-16,38,75,65,8,-27,20
1461663360505351,-90,-2,-12,-53,-32,-24,-49,-30
1461663360519367,-1,10,3,-17,-18,39,120,4
1461663360519367,-57,2,-17,46,59,17,-81,-40
1461663360526425,46,-5,42,47,18,-17,-33,21
1461663360526425,65,5,-33,13,15,-10,-24,-23
1461663360541386,-46,8,38,22,13,-9,-79,-18
1461663360541386,56,-7,-54,-54,-51,-51,-7,17
1461663360549392,40,-21,-40,-61,-38,4,41,32
1461663360549392,-11,-2,35,5,-47,-46,-47,4
1461663360564410,61,13,16,-18,19,24,65,53
1461663360564410,-87,0,8,-97,-28,47,85,-40
1461663360565394,-87,-1,-1,77,43,2,-97,-63
1461663360565394,77,-6,31,-7,-11,-24,-4,24
1461663360579420,-48,-4,-14,-46,-31,9,10,-16
1461663360579420,-4,3,13,118,75,43,58,2
1461663360586426,49,-12,58,-128,-68,-36,-15,13
1461663360586426,40,4,4,80,76,26,-6,8
1461663360609485,3,6,5,11,21,6,27,30
1461663360609485,1,0,-30,29,26,8,-54,-7
1461663360610426,-36,-5,-45,-74,-70,-19,28,-36
1461663360610426,62,-21,-2,-25,-21,-7,-26,0
1461663360624495,48,16,30,67,20,-9,-27,35
1461663360624495,-45,3,-6,-47,-32,-53,-24,-15
1461663360625440,70,-7,10,11,-5,14,7,16
1461663360625440,-50,4,-9,-128,-108,-20,-1,8
1461663360639447,69,-13,-2,127,94,26,68,51
1461663360639447,-50,0,14,-75,21,43,43,-14
1461663360646481,-85,-1,-60,37,7,5,-33,-43
1461663360646481,98,2,3,-55,-13,-20,9,7
1461663360661474,-30,8,-15,-50,2,5,39,-24
1461663360661474,-64,-1,29,119,67,34,-3,4
1461663360669505,57,-14,32,33,13,-5,4,23
1461663360669505,9,4,-59,-16,16,36,67,19
1461663360684542,-22,-7,-31,20,7,-20,-52,-26
1461663360684542,41,-1,6,-26,-52,-37,24,31
1461663360685491,-18,-15,-14,-40,-11,30,35,-29
1461663360685491,30,1,-30,46,2,-47,-75,-1
1461663360699521,21,6,11,28,-15,-30,-46,11
1461663360699521,23,5,33,-27,-36,-18,35,14
1461663360706524,-15,-13,1,-45,-19,25,47,-7
1461663360706524,-4,3,16,21,4,10,20,-10
1461663360721521,39,0,2,33,67,16,-8,14
1461663360721521,-41,-11,-6,-58,-39,-2,-3,-6
1461663360729534,48,-1,24,63,46,16,-2,16
1461663360729534,-106,10,2,44,42,-14,-27,-22
1461663360744537,53,-5,-18,-44,-32,-15,3,-23
1461663360744537,19,-4,46,-34,1,33,34,0
1461663360745523,-72,2,-3,37,54,21,27,26
1461663360745523,-23,8,-58,-43,-47,-30,-47,-11
1461663360759548,-71,2,30,16,-20,-18,-8,-21
1461663360759548,81,-11,-25,4,-2,36,60,24
1461663360782606,-4,3,-17,-65,-46,-30,40,-36
1461663360782606,10,-10,-5,-19,-31,-21,-60,42
1461663360784550,-11,2,24,-69,-41,-21,-91,-25
1461663360784550,42,-4,-9,45,46,-18,21,22
1461663360788564,61,-3,3,1,2,21,13,8
1461663360788564,-5,13,28,-12,14,5,-1,-28
1461663360804575,-30,-8,-25,-12,2,-8,18,17
1461663360804575,-14,-1,-18,-105,-71,-5,-35,-8
1461663360805564,30,-10,5,106,106,26,-5,-10
1461663360805564,14,8,50,-43,-7,25,64,5
1461663360818577,-18,-8,-16,44,56,32,2,-7
1461663360818577,-6,5,-24,-12,13,-7,-16,-8
1461663360826580,-46,2,-41,-95,-53,-17,-21,0
1461663360826580,-40,-1,-8,-5,-18,6,1,7
1461663360841596,3,-1,15,24,-1,26,59,-16
1461663360841596,-36,-2,-9,35,-1,-14,-52,-5
1461663360849625,53,0,-8,-60,-38,-37,-75,6
1461663360849625,-45,-2,12,48,21,-35,20,38
1461663360866616,-45,17,1,-6,-26,-3,-9,5
1461663360866616,33,-8,10,14,19,12,-17,-28
1461663360866616,42,-13,-2,-36,-40,22,46,-5
1461663360866616,42,-7,-27,-18,12,5,-18,-8
1461663360879618,-26,7,3,42,12,-18,-22,10
1461663360879618,14,-6,5,-44,-33,-14,-8,7
1461663360886629,7,-1,18,97,28,2,-7,-4
1461663360886629,10,2,-22,-32,9,17,27,-25
1461663360901650,-25,0,11,55,-2,-5,5,-12
1461663360901650,-12,-2,-23,61,34,11,-15,-4
1461663360908654,3,-5,0,-90,-25,-11,-3,11
1461663360908654,-78,4,-47,47,30,10,-2,-27
1461663360924660,65,-3,1,-30,-30,-14,3,-11
1461663360924660,15,4,15,-5,0,3,68,48
1461663360925661,-125,6,6,35,6,3,-79,-28
1461663360925661,60,-1,30,-40,-23,25,56,-2
1461663360938671,-61,5,-14,-35,-23,-46,-7,8
1461663360938671,7,-9,-3,30,6,-18,-3,17
1461663360946677,53,-2,-14,-46,-28,7,10,15
1461663360946677,-59,4,-9,10,-7,-42,-94,-55
1461663360961691,5,-5,-27,-54,-7,-6,24,13
1461663360961691,23,4,43,32,-12,19,-11,-17
1461663360977732,20,2,7,-71,-7,3,10,9
1461663360977732,-19,4,11,77,32,18,17,-6
1461663360984753,-1,-2,-22,-3,19,7,8,2
1461663360984753,-24,-2,41,-54,-31,-29,-31,-14
1461663360985693,29,-8,4,25,23,12,12,11
1461663360985693,-34,0,-28,-12,0,-4,4,-4
1461663360998730,-17,4,16,-8,-12,-3,-19,-9
1461663360998730,-13,-9,-36,-25,-23,-3,-6,1
1461663361006735,5,-12,-21,-4,-18,-2,24,-1
1461663361006735,34,-1,8,5,8,7,61,43
1461663361021716,-9,2,8,1,-13,12,-56,-6
1461663361021716,-14,-8,-5,-3,13,10,42,3
1461663361028784,6,-4,5,23,0,-21,-12,16
1461663361028784,-29,12,1,-22,-23,-23,-80,-51
1461663361044834,27,-7,2,-29,0,0,1,5
1461663361044834,27,-3,15,-11,-24,-1,5,-9
1461663361051837,-70,3,-29,-37,18,8,11,9
1461663361051837,18,-3,19,93,73,31,39,24
1461663361058843,-7,0,4,-34,-7,12,6,-7
1461663361058843,24,-1,15,60,60,10,-12,-10
1461663361066850,29,11,-7,-18,7,7,12,-5
1461663361066850,-3,3,13,-87,-35,-1,-14,1
1461663361082858,-16,0,6,64,31,3,1,1
1461663361082858,-1,-8,-39,-38,-23,-15,-11,-1
1461663361088863,2,1,0,12,-22,-20,-17,-19
1461663361088863,28,-4,-4,2,-7,-45,18,12
1461663361103875,-7,-29,0,-16,-15,57,18,31
1461663361103875,22,-14,-11,-10,-15,-3,-17,-3
1461663361111893,-33,-41,-1,24,0,-12,-56,-22
1461663361111893,-4,-122,-5,-12,-6,2,-31,-18
1461663361118884,24,-90,11,-7,-9,-18,43,31
1461663361118884,18,-8,-13,2,3,0,24,10
1461663361126904,43,53,-18,-10,13,3,-1,-4
1461663361126904,-11,-26,39,40,15,-1,15,12
1461663361141901,-6,15,6,33,15,2,-3,-16
1461663361141901,-26,25,-3,-87,-22,-6,-27,-11
1461663361148944,-2,127,47,100,75,10,20,5
1461663361148944,-19,127,-10,-34,-11,12,-2,-5
1461663361165931,-7,108,12,7,-5,-7,-11,-8
1461663361165931,-2,95,-22,-8,-8,-2,-15,-6
1461663361171956,29,127,-10,-55,-53,-26,8,7
1461663361171956,4,-3,-12,-22,-14,1,1,-1
1461663361178965,-12,-16,13,35,19,-27,-6,12
1461663361178965,-6,-62,-4,7,15,17,17,-12
1461663361186944,0,-7,-15,-8,-18,46,19,1
1461663361186944,-8,-7,-10,6,-1,33,-4,4
1461663361201958,-7,-45,-18,-26,-19,-26,-30,-9
1461663361201958,31,-104,9,25,25,-18,-20,3
1461663361208959,-35,-50,3,5,-4,-24,-18,-19
1461663361208959,5,-67,-10,-31,-30,-14,7,-2
1461663361224017,-23,-107,-18,-62,-29,-1,10,-4
1461663361224017,37,-81,38,83,51,3,10,7
1461663361232070,22,-19,1,8,-1,2,5,-3
1461663361232070,8,-101,0,-8,13,-6,-2,4
1461663361240071,-17,-122,2,31,30,0,-6,-7
1461663361240071,-15,-128,-12,-16,-10,2,-16,-6
1461663361247082,7,-83,-4,-31,-21,-14,-3,-3
1461663361247082,-28,-17,-2,4,-5,1,-11,-8
1461663361262105,9,54,-3,-8,-16,-2,-10,-14
1461663361262105,-4,66,1,3,4,4,11,12
1461663361269109,0,61,-3,-4,-2,-1,15,12
1461663361269109,-6,73,-15,-19,-17,-37,-11,6
1461663361284107,25,70,13,19,13,57,33,7
1461663361284107,-59,-4,-9,-5,-10,24,1,-17
1461663361291097,-57,45,-2,-7,-12,-20,-17,-32
1461663361291097,11,70,3,8,8,15,-2,14
1461663361307123,54,61,-2,3,-2,-24,14,30
1461663361307123,36,85,3,1,-6,8,1,7
1461663361308124,-25,23,-5,-6,-2,10,6,-20
1461663361308124,-21,28,11,-10,-11,-8,3,-3
1461663361322135,39,35,11,15,24,9,-5,13
1461663361322135,13,22,-34,-37,2,-3,5,0
1461663361337145,-36,-3,11,39,20,-5,-9,-25
1461663361337145,-1,32,17,13,2,4,-1,-2
1461663361344162,21,-8,-1,1,-10,-2,-6,9
1461663361344162,3,-55,-4,-28,-16,-5,-9,-6
1461663361351169,-18,-26,-10,-17,-9,-7,-6,-12
1461663361351169,7,23,-8,-7,-8,-9,-10,4
1461663361369158,16,-18,2,-7,-7,2,-7,4
1461663361369158,12,-4,4,8,0,-2,0,3
1461663361369158,-19,-3,-1,-6,-6,-20,-2,-2
1461663361369158,-25,-17,2,9,11,55,25,8
1461663361390180,25,-14,-6,-1,4,-11,-3,2
1461663361390180,16,34,5,14,1,-2,-2,1
1461663361390180,-27,12,8,-2,-3,-12,2,-1
1461663361390180,-4,3,-28,-10,-2,-11,1,5
1461663361404189,20,12,7,3,2,-6,-3,3
1461663361404189,8,8,6,13,6,4,8,5
1461663361411219,-19,-10,8,-13,-9,-6,-8,-14
1461663361411219,-13,-5,-4,-2,4,-1,-3,-7
1461663361427192,15,-15,0,-4,0,4,-5,-7
1461663361427192,14,21,15,18,3,-7,2,3
1461663361428206,-23,10,-3,-3,3,3,3,2
1461663361428206,-7,-4,-11,5,-2,-2,0,-2
1461663361450208,19,4,-9,-8,-7,-5,0,3
1461663361450208,2,3,4,-9,-9,-14,-5,-5
1461663361450208,-25,-8,3,5,0,-5,-7,-6
1461663361450208,-10,-17,-15,-4,1,25,5,7
1461663361464220,13,-3,-4,0,-1,-4,-1,14
1461663361464220,-5,-7,3,-1,-2,-6,-4,-18
1461663361471255,-8,-4,9,-3,-4,2,3,-20
1461663361471255,0,-3,23,0,0,-25,-8,20
1461663361487263,3,-47,-38,-7,6,23,0,19
1461663361487263,7,5,14,6,0,2,-4,-14
1461663361488236,-8,-6,-24,-9,-9,1,-3,-31
1461663361488236,0,16,21,-11,-5,-3,2,12
1461663361501273,-2,-10,-7,9,2,-8,-2,18
1461663361501273,5,10,9,0,1,0,-5,-7
1461663361509251,-7,11,4,-5,-1,5,4,-21
1461663361509251,2,14,-9,-3,5,-3,-1,10
1461663361524276,1,10,15,17,-1,-11,-4,17
1461663361524276,4,5,-25,-3,1,2,4,-5
1461663361531325,-5,-1,-7,1,-5,-4,-3,-19
1461663361531325,4,9,14,1,2,0,-3,8
1461663361547276,-3,-36,-26,-22,-11,-13,-4,9
1461663361547276,-5,-8,6,4,3,16,0,-7
1461663361555282,-6,-20,-9,-5,1,5,0,-11
1461663361555282,1,-10,-2,7,1,20,8,9
1461663361561302,8,5,6,0,1,-3,-1,7
1461663361561302,3,5,8,0,0,-7,-3,-3
1461663361569308,-3,-7,-8,-4,-3,0,2,-9
1461663361569308,-8,-7,-4,2,-3,-12,-8,6
1461663361584363,8,14,17,7,1,3,12,18
1461663361584363,-5,-8,-36,-13,-14,-9,-24,-34
1461663361592323,-4,-9,-10,-4,-1,1,-2,-7
1461663361592323,-6,-15,15,3,1,-10,-2,0
1461663361607319,5,12,6,0,9,7,1,2
1461663361607319,1,-4,-1,-6,-3,-5,4,4
1461663361608320,-5,-3,-13,-3,1,-2,-2,-5
1461663361608320,0,9,-2,6,0,-4,1,0
1461663361621388,7,8,3,-4,-2,-3,-3,5
1461663361621388,-1,-11,-21,-6,-8,-1,0,-2
1461663361629395,1,9,7,-2,-5,-5,-3,-5
1461663361629395,-8,-5,-9,-3,0,-2,3,7
1461663361644374,8,3,-6,-1,-2,-5,-6,-1
1461663361644374,3,0,5,1,-2,-2,2,-4
1461663361652352,-9,-15,-5,0,0,-2,0,-4
1461663361652352,4,10,-3,0,1,5,1,4
1461663361675385,0,5,19,2,-2,-7,-3,-2
1461663361675385,-3,-3,-3,0,2,10,5,0
1461663361676370,-1,-2,4,-3,-3,3,2,0
1461663361676370,-4,-17,-5,-8,-3,-2,-1,1
1461663361681389,6,6,17,17,6,-3,-2,-1
1461663361681389,-5,-15,-29,-10,-3,-3,0,-1
1461663361689395,-1,7,0,2,-1,4,-1,1
1461663361689395,-2,-10,-29,-20,-7,-3,-1,-1
1461663361705387,-3,-1,8,12,6,0,-1,0
1461663361705387,1,24,36,8,2,-1,1,-2
1461663361712406,-4,-1,-9,3,2,-1,-1,-2
1461663361712406,-3,-2,0,0,3,-2,1,2
1461663361721413,-5,-1,-7,1,-5,-4,-3,-19
1461663361721413,4,9,14,1,2,0,-3,8
1461663361730420,-3,-36,-26,-22,-11,-13,-4,9
1461663361730420,-5,-8,6,4,3,16,0,-7
1461663361730420,-6,-20,-9,-5,1,5,0,-11
1461663361730420,1,-10,-2,7,1,20,8,9
1461663361738411,8,3,-1,-12,-9,3,0,2
1461663361738411,2,-1,5,13,5,-13,-3,-2
1461663361739425,-6,2,-2,-7,-3,5,-1,-1
1461663361739425,0,1,6,5,-2,10,4,2
1461663361741413,1,-4,-2,-3,-2,2,4,-3
1461663361741413,11,8,2,-5,-4,-8,-6,0
1461663361749458,0,2,15,1,-3,-26,-5,-2
1461663361749458,-17,-35,-28,-4,0,18,-4,-3
1461663361764431,-1,14,21,2,3,10,8,3
1461663361764431,3,-9,2,-2,-1,2,1,-4
1461663361771641,-2,6,-2,0,0,4,2,1
1461663361771641,3,7,10,1,-2,-17,-4,1
1461663361787608,-4,-8,-19,-6,-3,-1,-2,-4
1461663361787608,0,9,24,1,0,1,0,-3
1461663361787608,-4,-28,-37,3,1,0,-2,-2
1461663361787608,-3,-4,6,1,-1,-2,9,10
1461663361811604,-1,-2,-6,1,0,-2,-24,-25
1461663361811604,1,3,-13,-5,-1,-2,-2,-3
1461663361811604,1,12,21,7,2,3,0,0
1461663361811604,-6,-3,-14,-5,-3,-2,1,1
1461663361823672,-5,-7,13,-1,-5,-16,3,4
1461663361823672,4,3,-8,1,-2,5,-19,-4
1461663361831677,-7,-22,-8,-7,-1,7,6,-2
1461663361831677,-12,-24,-36,-3,-2,-7,2,0
1461663361847628,0,1,-7,-4,-1,-4,1,2
1461663361847628,-1,-12,-22,-4,-4,11,5,-5
1461663361847628,3,14,27,2,2,6,-2,5
1461663361847628,6,14,8,2,3,-6,-5,2
1461663361861656,-10,-26,-40,-9,-2,-2,4,-1
1461663361861656,-1,-6,-3,0,0,-7,0,-2
1461663361868646,-3,2,8,1,-1,-7,-4,0
1461663361868646,8,13,20,6,2,-2,1,0
1461663361883816,-1,3,4,-2,-2,5,-3,0
1461663361883816,1,-5,3,0,-2,2,1,-1
1461663361891762,2,1,-7,-5,-2,1,0,1
1461663361891762,-4,-8,12,5,1,-12,-22,-7
1461663361907772,2,7,-14,-3,-1,-3,-10,3
1461663361907772,-2,3,15,-1,-1,8,50,5
1461663361907772,-8,-22,-43,-11,-7,0,3,4
1461663361907772,-2,-7,-15,1,0,1,5,3
1461663361921781,0,-14,4,5,0,-1,-13,-3
1461663361921781,1,-4,-7,0,-2,-17,-12,-4
1461663361928848,-1,7,11,0,-2,11,6,2
1461663361928848,6,9,14,4,3,2,-2,4
1461663361943796,0,-1,-2,2,1,1,4,-2
1461663361943796,-8,-10,0,-8,-8,-12,-6,-4
1461663361951869,-7,-3,3,-2,-4,-5,-21,-2
1461663361951869,-1,4,1,-2,0,6,15,0
1461663361966830,3,8,2,-2,1,2,7,1
1461663361966830,2,-4,-8,-14,-3,-2,2,-3
1461663361967817,3,10,17,-2,-4,-4,-7,-4
1461663361967817,-3,1,10,7,5,5,-6,-1
1461663361981882,-5,-6,-1,-2,2,-6,5,-2
1461663361981882,3,1,-26,2,1,2,-15,-2
1461663361988828,-2,-4,13,-8,-7,-6,11,-3
1461663361988828,-3,12,31,2,-4,-3,-10,0
1461663362003845,0,5,6,-1,-4,-1,19,1
1461663362003845,-3,-16,-12,-6,-6,-15,-20,-7
1461663362011873,0,-7,-8,2,2,34,4,0
1461663362011873,2,6,1,2,2,1,13,1
1461663362027887,-3,-15,-25,-8,-2,4,-26,-3
1461663362027887,3,11,8,3,1,0,17,-3
1461663362027887,1,-14,-17,5,5,-14,-3,2
1461663362027887,-8,5,35,-11,-11,-5,-5,-2
1461663362049931,6,13,4,1,-1,-1,-5,0
1461663362049931,2,1,0,-3,-4,-6,-4,-3
1461663362050884,0,10,7,-6,-3,-10,0,1
1461663362050884,-3,-8,-17,7,6,7,0,0
1461663362063883,-5,-1,18,7,-1,-6,1,-4
1461663362063883,0,4,13,6,5,6,-1,-4
1461663362071889,2,1,-14,-3,-2,-6,-18,-1
1461663362071889,2,-6,-17,-3,0,4,22,13
1461663362095903,-2,5,10,0,-2,2,4,-2
1461663362095903,0,-10,-17,-8,-5,-4,-29,-11
1461663362095903,-4,3,8,5,2,1,15,-2
1461663362095903,-1,13,40,3,-2,-3,15,-2
1461663362101908,1,-5,-48,-3,-1,-4,-4,6
1461663362101908,2,6,27,4,-1,11,5,1
1461663362108914,0,4,1,0,-2,-10,-11,-2
1461663362108914,1,-5,-37,-2,0,6,-2,7
1461663362123924,-1,1,31,-1,-1,0,13,-3
1461663362123924,-1,-7,0,1,-2,-5,-29,-8
1461663362131940,-2,-3,0,1,-1,-3,15,2
1461663362131940,1,17,-4,-1,0,-7,-17,-5
1461663362146952,-6,-39,-27,-6,-4,-2,-25,-3
1461663362146952,-4,6,-9,-5,-4,7,41,-1
1461663362154957,-14,-47,-25,-5,-1,4,6,0
1461663362154957,7,13,-7,3,5,-1,-5,4
1461663362161962,1,7,28,5,0,-6,-2,-2
1461663362161962,1,6,40,3,-5,-4,-9,-2
1461663362168973,-3,16,3,-1,-2,0,9,1
1461663362168973,-1,-5,-18,-7,-5,-8,-32,-1
1461663362183978,1,2,-18,3,7,-2,-2,-1
1461663362183978,-2,-2,-7,-1,-2,2,9,-5
1461663362191972,1,1,7,0,-1,4,22,4
1461663362191972,-8,-9,-11,-6,-5,-3,-5,1
1461663362206983,1,9,16,2,1,-12,-20,-4
1461663362206983,0,-1,-6,2,3,20,9,-2
1461663362215027,-1,-5,-2,-1,0,-9,-11,0
1461663362215027,-7,-13,-7,0,-2,9,4,3
1461663362229999,5,15,23,-6,-6,1,11,-3
1461663362229999,0,-8,-19,-3,0,-13,-18,-8
1461663362231000,-1,13,19,4,2,0,-6,-1
1461663362231000,-4,-9,6,-5,-5,-3,4,0
1461663362244016,1,-3,-39,0,4,5,1,1
1461663362244016,1,-1,19,3,-2,-5,1,-1
1461663362252041,-1,12,2,2,4,1,-5,11
1461663362252041,0,22,40,2,-3,-2,4,-11
1461663362267054,2,-23,-16,-6,-5,-1,-17,-4
1461663362267054,0,8,-15,-2,3,6,38,-2
1461663362274049,3,6,1,3,-1,1,-13,4
1461663362274049,1,-6,-13,-4,-1,-3,2,5
1461663362290060,-5,-3,7,1,0,8,15,-3
1461663362290060,2,-3,-1,-1,-4,-23,-15,-2
1461663362291061,-8,-1,2,-1,-2,8,-6,-4
1461663362291061,-3,-2,-10,-5,-2,-7,-4,1
1461663362304067,0,0,-10,-3,-3,-15,-27,-3
1461663362304067,-4,-3,7,-5,-4,9,8,2
1461663362312057,0,-4,-12,-3,-2,1,7,-3
1461663362312057,-2,-10,-17,-6,-1,0,-3,0
1461663362326106,0,4,3,2,4,5,10,1
1461663362326106,4,19,55,6,-1,-11,-12,-8
1461663362335111,-5,-17,-10,-4,-4,-8,-16,1
1461663362335111,-1,0,-5,-2,-1,4,1,2
1461663362350123,6,2,-3,3,1,-1,13,-1
1461663362350123,-5,-12,-28,-1,3,1,-12,-4
1461663362350123,3,9,-3,-3,-1,-1,3,0
1461663362350123,-10,-31,-2,-1,-1,-2,-2,0
1461663362364122,2,4,0,-2,-2,0,8,-2
1461663362364122,6,1,2,0,-2,-2,-6,-6
1461663362372132,-2,-9,0,-2,-3,-2,-1,5
1461663362372132,-4,4,-6,-3,-1,-3,-1,3
1461663362388112,3,10,21,-2,-2,6,6,-1
1461663362388112,-5,-14,-14,-2,-2,0,-3,-5
1461663362395117,1,7,6,0,-2,-9,-7,0
1461663362395117,2,1,-12,-2,1,-4,-4,-1
1461663362410128,-4,-1,39,4,-3,-1,-5,-3
1461663362410128,3,5,-15,-9,-5,0,19,-5
1461663362411128,-12,-15,-10,-12,-10,-4,-12,-3
1461663362411128,4,11,9,15,12,8,13,7
1461663362424135,-1,-22,-7,-6,2,0,-2,-2
1461663362424135,5,5,-14,3,0,-1,-5,-4
1461663362432159,-11,-11,-6,-4,-4,-1,-3,-3
1461663362432159,-10,-20,8,-1,-5,1,-4,0
1461663362446154,5,11,0,0,-5,-4,5,-4
1461663362446154,2,-8,-11,-12,-4,-4,-12,-4
1461663362455159,-3,-1,-11,1,3,1,6,4
1461663362455159,2,6,-1,-3,-4,-4,-3,0
1461663362470186,2,21,8,0,0,2,6,1
1461663362470186,-6,-24,-13,0,0,1,-3,-3
1461663362470186,1,17,11,2,2,1,-1,0
1461663362470186,4,-6,-7,-3,-3,-3,0,-1
1461663362484239,-2,-6,-21,-4,-1,-1,-2,-4
1461663362484239,-10,-18,12,2,-1,-2,-6,-4
1461663362492192,-3,11,-2,-2,1,0,3,-1
1461663362492192,1,5,14,6,7,2,-2,3
1461663362506202,4,9,-6,6,4,1,3,-1
1461663362506202,1,-4,2,-4,-5,-2,-2,0
1461663362515202,5,10,19,13,7,0,-1,3
1461663362515202,-9,-15,-16,-2,0,2,-2,-2
1461663362530214,5,13,-6,-4,-4,0,-2,-1
1461663362530214,10,14,-4,-3,-1,1,2,1
1461663362530214,-6,-11,1,-7,-8,-5,-5,1
1461663362530214,-6,2,-5,-5,-4,-3,0,0
1461663362544220,-2,-3,3,-1,1,-1,1,-2
1461663362544220,2,3,-7,-2,-2,-1,-5,-2
1461663362551285,-4,-5,6,1,0,-2,1,4
1461663362551285,0,7,-10,-1,-3,-2,-3,0
1461663362566236,9,12,9,3,-1,0,2,0
1461663362566236,-6,-1,0,1,-1,-1,-3,-4
1461663362575263,-4,-17,-21,-6,-2,2,-1,-1
1461663362575263,-3,5,-1,-8,-1,-1,-2,-1
1461663362589252,-1,-11,9,12,4,1,2,-3
1461663362589252,6,-1,-15,1,7,0,-1,-2
1461663362590252,-5,-6,5,-11,-3,-3,-2,1
1461663362590252,0,-8,-2,13,5,2,-3,0
1461663362604291,-2,3,-3,-10,-6,-2,-3,-5
1461663362604291,0,-14,-9,-11,-6,-2,-3,-4
1461663362611295,-8,2,5,9,-1,0,2,0
1461663362611295,2,7,6,-8,-6,-4,1,2
1461663362626309,-6,-10,-6,-2,-3,-1,-3,-7
1461663362626309,1,-1,5,4,-1,-4,-2,-1
1461663362642332,1,4,-7,-6,-5,-6,-1,3
1461663362642332,4,5,5,0,0,-1,0,1
1461663362649381,-2,-7,3,0,1,2,1,0
1461663362649381,0,-5,-15,-13,-5,-1,-1,-4
1461663362650339,1,8,3,7,3,1,-1,1
1461663362650339,-6,1,6,4,0,0,-2,-1
1461663362664331,1,-8,-14,-8,-9,-5,-3,-4
1461663362664331,2,-7,-3,-1,0,0,1,-3
1461663362671397,1,19,8,-6,-1,1,-1,2
1461663362671397,-3,-13,0,7,0,0,0,0
1461663362703358,1,3,4,3,6,3,3,0
1461663362703358,0,11,5,-7,-7,-5,-4,-5
1461663362703358,-8,-25,-7,-1,0,-1,-1,1
1461663362703358,-8,6,8,9,2,-2,-3,-3
1461663362709363,4,12,1,-7,-5,-3,-2,-3
1461663362709363,5,-5,4,8,-1,-1,0,-1
1461663362710364,1,-1,-2,-1,4,1,-1,2
1461663362710364,0,2,-8,-8,-2,0,0,0
1461663362724435,-2,-9,-8,2,-2,-3,-3,-1
1461663362724435,0,3,2,1,0,1,-1,-1
1461663362731388,7,6,9,0,-1,-1,2,8
1461663362731388,-16,-7,-8,-5,1,-2,-2,-4
1461663362746405,-1,-2,-4,2,0,-2,0,-5
1461663362746405,-1,0,3,-8,-6,-3,-3,-5
1461663362754423,-2,2,-3,10,4,0,0,0
1461663362754423,5,6,8,-8,-3,0,1,2
1461663362769435,3,-2,-1,6,2,1,1,-2
1461663362769435,1,3,4,-10,-3,-1,0,-1
1461663362770407,-3,-4,-9,12,3,2,-1,0
1461663362770407,10,8,16,12,8,0,-1,1
1461663362784432,-7,-15,-28,-18,-9,-3,-3,-5
1461663362784432,-1,-2,-4,10,0,1,0,-1
1461663362791436,-7,-5,-8,-13,-8,-7,-7,-3
1461663362791436,5,11,-1,-5,-5,-2,1,2
1461663362806448,1,-12,-7,-5,-2,-2,0,-1
1461663362806448,-4,5,5,3,-2,-2,-3,-5
1461663362814496,-3,-3,-7,-5,-4,0,-1,1
1461663362814496,-1,1,0,0,-3,-4,0,0
1461663362829506,-3,-1,7,3,2,2,-3,-7
1461663362829506,-4,-3,-5,-2,-2,-8,-2,-3
1461663362830448,0,4,1,2,1,2,-1,1
1461663362830448,-7,-10,-4,-5,-2,2,-1,0
1461663362844480,7,4,3,-1,-5,-2,-1,-1
1461663362844480,4,-8,-9,-4,2,0,1,-2
1461663362851530,4,21,13,-5,0,0,-1,2
1461663362851530,-16,-40,-5,12,1,-1,-2,-5
1461663362866479,-3,-2,6,1,1,-1,-2,-1
1461663362866479,-2,-2,-3,-6,-7,-2,-3,-2
1461663362874482,-2,-6,-2,18,10,2,4,3
1461663362874482,1,9,6,-7,-1,1,1,-1
1461663362889490,-3,-1,-1,2,2,-2,-1,-4
1461663362889490,3,10,2,0,0,0,-2,-4
1461663362890491,-3,-15,-4,-10,-5,-4,-2,2
1461663362890491,7,14,-4,-1,-1,0,0,3
1461663362904560,7,0,-1,-4,-5,-3,-1,-2
1461663362904560,-3,-5,-7,-7,-2,-1,-3,-2
1461663362911565,-12,-2,2,4,-1,0,0,0
1461663362911565,1,-4,-6,1,0,2,2,0
1461663362926665,5,6,9,-1,-2,0,2,-1
1461663362926665,-2,-5,-6,-2,1,0,0,-3
1461663362934671,-3,2,2,-5,-6,-3,-2,1
1461663362934671,-4,6,6,-4,-4,-2,1,0
1461663362949682,0,2,4,-5,3,4,-1,-2
1461663362949682,1,8,0,20,12,2,1,1
1461663362950625,-8,-18,-7,0,-1,-3,-2,0
1461663362950625,10,28,15,-2,-3,-2,-3,0
1461663362964663,-5,-35,-20,-8,-7,-1,0,-5
1461663362964663,0,6,2,-4,-4,-4,-2,-3
1461663362971795,0,-4,3,5,2,0,0,2
1461663362971795,6,13,-1,-3,-1,-1,-1,3
1461663362986779,-5,-1,2,4,-1,-1,-2,-3
1461663362986779,5,-1,-5,-3,-4,-1,-1,-1
1461663362994786,-1,14,2,-4,0,2,0,2
1461663362994786,-4,-12,-11,-4,-2,-2,-3,-4
1461663363008817,4,10,5,-1,-2,-2,-3,-3
1461663363008817,-5,-18,-10,-7,-2,-1,-1,-4
1461663363017824,0,7,14,3,-4,-1,1,4
1461663363017824,-1,-10,-12,1,5,0,0,2
1461663363023799,9,12,11,3,3,3,1,1
1461663363023799,-6,-15,-19,-13,-7,2,-2,-1
1461663363031844,-5,-2,-2,-2,2,-1,-1,0
1461663363031844,-1,4,12,6,0,-2,-1,-1
1461663363046817,5,8,-5,0,-1,-3,2,0
1461663363046817,2,9,23,8,0,-1,-3,-3
1461663363054836,-6,-20,-18,-12,-3,1,-1,1
1461663363054836,-4,-10,-6,-1,-2,0,-2,-7
1461663363068831,6,4,-3,-1,-1,-2,-1,0
1461663363068831,-6,-7,-6,-2,-3,-1,2,7
1461663363076852,-6,8,-1,-1,-1,0,0,3
1461663363076852,-2,-3,-2,0,-1,-1,-2,-1
1461663363085845,-9,-18,1,-1,0,1,-2,-10
1461663363085845,6,9,1,-10,-8,0,1,-2
1461663363091850,-15,-9,-9,2,1,-3,-4,2
1461663363091850,-2,6,12,-1,0,1,-2,0
1461663363106860,-2,-3,-10,-22,-2,-3,-2,-6
1461663363106860,-2,0,14,57,12,3,0,-3
1461663363114875,7,-6,-5,7,10,4,4,3
1461663363114875,-11,-25,-3,-4,-2,-2,-1,-4
1461663363128885,8,23,10,0,-2,2,2,3
1461663363128885,-2,-3,0,-19,-7,-4,-2,-4
1461663363136879,-5,5,-4,-7,-7,-5,-3,-1
1461663363136879,-1,8,-1,2,0,-1,0,-2
1461663363143895,2,-9,-4,4,-1,-1,-1,-4
1461663363143895,-4,-8,-1,-4,0,-1,1,-2
1461663363151901,7,16,3,2,0,5,22,10
1461663363151901,-9,-13,-14,-11,-1,1,-18,-3
1461663363166938,-4,-2,-4,-3,-6,-11,-7,-9
1461663363166938,5,1,1,1,-5,-6,-8,5
1461663363174944,-11,-12,5,8,2,-4,-13,2
1461663363174944,5,4,-11,-27,-7,-2,9,4
1461663363188927,-1,-2,2,37,12,4,2,-5
1461663363188927,12,3,12,-19,-17,-5,-2,-4
1461663363196980,-11,-20,-3,44,34,14,8,3
1461663363196980,8,21,16,18,9,6,4,1
1461663363211990,5,1,-3,10,13,5,1,-3
1461663363211990,-12,-19,-16,1,-7,-3,2,-1
1461663363212947,3,-3,8,-5,-7,-3,-6,0
1461663363212947,-6,4,-11,-20,-15,-5,-6,-9
1461663363227003,10,14,6,5,3,2,1,0
1461663363227003,-9,-29,0,-12,-4,1,-3,5
1461663363233951,1,3,0,-26,-15,3,16,7
1461663363233951,-8,-3,-2,16,7,-2,-8,-2
1461663363248978,5,-5,-6,-20,-8,-3,-7,-3
1461663363248978,-4,16,3,-6,-2,-7,7,-5
1461663363256964,6,-9,-19,-17,-14,-13,-30,10
1461663363256964,0,3,10,-4,-4,-11,5,7
1461663363280998,-11,-5,6,31,3,-8,-24,-13
1461663363280998,2,-7,-21,-41,-8,2,-6,-4
1461663363280998,6,28,15,28,19,6,14,4
1461663363280998,-2,7,-12,-10,-5,-2,-1,-1
1461663363286997,-12,2,31,2,-13,0,8,-3
1461663363286997,9,38,2,57,44,14,19,5
1461663363294996,-9,6,-5,-18,-7,4,-3,-7
1461663363294996,3,3,-14,-21,-7,-1,-10,-11
1461663363309060,-7,-6,-15,-26,-12,5,18,2
1461663363309060,9,-7,1,-52,-22,1,23,13
1461663363317065,-16,27,-7,40,6,-10,-12,-3
1461663363317065,-11,-36,9,10,0,-10,-51,-14
1461663363332023,9,18,-10,-20,-16,-22,-48,-17
1461663363332023,-16,-3,-5,-2,5,14,45,14
1461663363333050,-8,-19,7,-38,-13,22,52,14
1461663363333050,3,21,16,36,-3,-21,-35,-11
1461663363347030,10,-15,-52,-43,-12,-26,-43,7
1461663363347030,-9,11,25,16,-3,-18,-5,1
1461663363362039,2,-32,-4,-12,13,6,-9,5
1461663363362039,-1,24,-23,-23,-7,12,45,-2
1461663363369043,13,-2,12,-26,-12,21,39,1
1461663363369043,23,36,37,40,6,3,-10,0
1461663363377050,-24,-67,-45,13,19,4,-9,-22
1461663363377050,18,-10,15,-23,-15,-9,2,-2
1461663363393060,-17,2,4,49,26,5,0,-9
1461663363393060,-11,5,-17,-27,10,12,-4,-5
1461663363393060,15,-54,20,69,8,-8,-28,9
1461663363393060,-18,-3,-11,8,5,7,33,16
1461663363407069,-10,-23,1,-71,-29,12,8,-13
1461663363407069,19,51,14,-5,0,27,69,17
1461663363414074,28,92,9,-6,-11,-21,-72,-18
1461663363414074,-33,18,-17,-34,-22,-22,11,-3
1461663363429086,-3,-8,-2,-4,1,-10,-75,5
1461663363429086,-17,-105,-9,-12,-36,-53,-47,-17
1461663363437090,-24,0,-34,16,5,-19,-28,-10
1461663363437090,5,-53,36,12,2,19,51,2
1461663363452101,-12,-97,25,60,46,32,69,-4
1461663363452101,8,9,-20,-51,-2,-4,-67,-21
1461663363453102,26,107,15,-83,-48,-11,-8,10
1461663363453102,-21,127,43,115,60,5,-1,-9
1461663363467130,32,84,-25,36,32,2,20,3
1461663363467130,-9,-4,-18,-50,-15,8,-2,9
1461663363474179,-41,-6,-14,-5,-13,4,32,-1
1461663363474179,22,-29,-45,-88,-43,-10,-18,9
1461663363489136,-17,-49,52,33,6,9,22,3
1461663363489136,13,-47,-4,19,20,-15,-40,18
1461663363497163,17,10,29,37,10,-14,2,6
1461663363497163,64,-30,-17,10,20,12,3,20
1461663363512152,16,-8,-23,-48,-33,-6,35,22
1461663363512152,-112,-22,-8,15,-12,7,-15,-37
1461663363513152,-19,-13,27,3,2,-12,-36,-21
1461663363513152,18,-13,-33,-89,-40,-37,-68,-30
1461663363527184,36,24,56,97,41,4,24,10
1461663363527184,17,-4,-34,-25,5,28,90,40
1461663363534178,13,-12,0,-37,11,33,50,9
1461663363534178,1,1,4,-43,-6,6,-5,-19
1461663363549174,-24,5,-8,46,0,-25,-66,-21
1461663363549174,2,-12,3,41,36,5,1,-3
1461663363557194,1,-6,-7,-31,-34,-1,85,-7
1461663363557194,17,5,24,-2,19,45,76,28
1461663363572225,-3,4,-10,6,-6,-27,-36,29
1461663363572225,-5,-24,-10,-18,-19,-23,-84,-12
1461663363573202,51,13,24,66,6,-16,-38,13
1461663363573202,-31,6,12,12,-5,-33,-62,-49
1461663363586198,22,-9,18,-23,0,35,37,-6
1461663363586198,6,8,-31,-22,-13,-3,49,4
1461663363594240,-59,-3,-23,-98,-46,-14,0,3
1461663363594240,-13,-5,41,72,22,28,64,17
1461663363609250,-5,6,-62,-28,-19,-15,-54,-20
1461663363609250,16,1,60,69,21,-12,-43,-18
1461663363617257,-27,-4,-48,-17,1,8,37,-7
1461663363617257,-41,-6,-29,-16,2,7,-26,-15
1461663363640264,56,0,65,45,28,13,75,41
1461663363640264,63,0,-22,-6,-18,-7,-15,13
1461663363641242,25,2,-17,-42,-8,-20,-64,-7
1461663363641242,-60,-6,19,-17,6,13,4,-18
1461663363646268,43,-9,-70,-40,7,3,-8,-11
1461663363646268,-46,-6,19,61,11,-11,14,-12
1461663363654273,-32,1,34,65,30,-6,47,21
1461663363654273,-48,9,0,-4,3,11,-8,-6
1461663363669284,11,-25,-18,-81,-46,-25,-114,1
1461663363669284,93,-22,10,14,-7,-11,47,45
1461663363677290,-66,5,-46,-17,4,9,-56,-54
1461663363677290,-73,19,-20,-64,-84,-59,-78,-88
1461663363692286,-23,-4,63,41,19,8,61,35
1461663363692286,58,-14,-68,-59,-25,3,-12,51
1461663363693287,15,9,24,-59,26,35,36,-10
1461663363693287,-36,23,10,79,47,29,32,-11
1461663363706284,-35,-13,-17,15,13,3,26,3
1461663363706284,43,-15,63,-27,-38,-35,-61,26
1461663363714287,11,8,19,-32,-16,16,-16,-11
1461663363714287,19,16,-51,-11,22,20,89,4
1461663363729337,-32,-11,40,21,1,-19,-73,-23
1461663363729337,24,-14,-38,12,11,-27,-16,37
1461663363744337,-18,11,26,18,-2,2,49,-24
1461663363744337,-20,19,19,16,14,16,-54,-51
1461663363754317,6,-13,-13,-75,-30,-18,43,-7
1461663363754317,31,-24,2,-36,-27,55,105,68
1461663363754317,-32,21,5,45,0,-49,-108,-24
1461663363754317,-26,11,-21,0,11,7,40,29
1461663363766353,44,-6,-69,-102,-95,-14,10,-19
1461663363766353,-66,3,116,88,88,-25,-41,4
1461663363774344,-30,-6,-26,-15,12,39,50,-29
1461663363774344,-28,-5,21,-17,-12,13,34,-10
1461663363790343,31,0,21,68,57,21,-55,2
1461663363790343,68,-10,-12,-21,26,17,-8,39
1461663363797361,0,9,39,-62,-45,-40,-21,-5
1461663363797361,-41,-4,-32,-39,-6,20,21,16
1461663363812396,-50,-22,10,35,53,12,12,-3
1461663363812396,-12,6,6,24,41,14,39,22
1461663363813370,-38,6,-31,-11,28,7,-14,-25
1461663363813370,36,3,12,-32,-46,-17,29,6
1461663363836381,32,-2,-46,-28,-38,-15,-35,-6
1461663363836381,-98,4,-42,9,-12,-29,-69,-41
1461663363837381,6,2,22,-5,-9,8,-6,10
1461663363837381,-7,17,10,-63,-42,16,50,38
1461663363849412,7,-28,-51,86,51,-13,18,1
1461663363849412,9,0,-44,-44,-7,-12,-57,-60
1461663363857419,-42,7,-24,54,-18,6,94,0
1461663363857419,120,-4,92,127,54,19,-47,23
1461663363872415,-67,7,-42,-35,-18,-14,-19,20
1461663363872415,-32,0,-55,-102,-87,-13,8,-14
1461663363873416,3,-3,-40,104,99,33,2,-16
1461663363873416,27,-7,11,7,42,11,19,20
1461663363886424,26,1,81,-103,-28,68,25,41
1461663363886424,17,0,17,77,29,-65,-78,-14
1461663363894426,-42,1,9,-20,-32,-41,-54,-17
1461663363894426,-8,11,-20,-27,-39,-67,-56,-14
1461663363909464,49,-15,-2,-13,4,39,41,-7
1461663363909464,50,-3,-8,-45,-29,14,26,-5
1461663363917444,-12,18,24,-16,-56,-42,-89,6
1461663363917444,-34,-1,-25,-65,-14,-12,35,-26
1461663363932480,24,-5,-70,21,31,-1,20,15
1461663363932480,32,-1,61,105,7,21,8,3
1461663363933455,9,0,26,19,17,5,6,15
1461663363933455,-12,-6,9,25,26,-6,11,1
1461663363946491,5,-15,17,-120,-63,9,38,20
1461663363946491,-127,13,-92,5,12,11,-24,-56
1461663363954487,49,2,83,88,88,13,18,26
1461663363954487,-47,9,-14,43,5,7,-22,-30
1461663363969476,-16,-14,5,-74,-20,6,-4,-5
1461663363969476,63,13,2,-41,-32,-39,-41,32
1461663363977505,-42,-8,-22,-46,-35,-10,18,7
1461663363977505,4,5,-35,-18,-22,-19,-38,-21
1461663363991500,43,15,39,37,31,11,19,22
1461663363991500,-24,-14,10,-26,-7,9,21,-10
1461663363999491,-5,5,18,-118,-74,17,48,-5
1461663363999491,8,-6,-8,90,98,32,-13,-7
1461663364006495,-80,-13,-29,-91,-77,-51,-54,-7
1461663364006495,17,4,38,5,25,19,13,13
1461663364014515,-62,-4,-17,43,83,29,27,-2
1461663364014515,51,-13,1,-63,-34,-13,-7,11
1461663364030529,3,-8,12,10,-8,1,35,16
1461663364030529,-1,4,8,-42,16,39,14,2
1461663364037518,-7,-17,-24,-48,-59,-19,-9,-5
1461663364037518,39,1,-29,-5,-11,-9,-10,-5
1461663364051585,16,-10,8,64,43,19,18,15
1461663364051585,54,-8,3,-30,-34,-33,-54,4
1461663364059530,16,-6,6,0,-22,-39,-23,-28
1461663364059530,-69,-5,-7,2,-3,-4,-43,-15
1461663364074554,14,-12,6,-27,-44,-44,-25,-24
1461663364074554,26,-4,-16,-14,1,30,43,13
1461663364075542,-31,-8,-32,-49,-31,0,-26,-13
1461663364075542,-5,-4,12,44,10,-7,-2,7
1461663364089551,7,-2,35,-22,37,10,8,-8
1461663364089551,-44,12,-65,19,10,15,38,-11
1461663364097569,0,1,13,51,40,8,-9,-1
1461663364097569,-13,3,18,-23,-19,-8,-9,3
1461663364111579,18,-6,29,2,-21,-14,-7,-7
1461663364111579,12,-3,-24,-36,-14,-1,11,-11
1461663364119574,-14,1,-22,-28,-23,-22,2,-6
1461663364119574,-27,-5,-14,-3,-16,-21,13,22
1461663364134584,-14,-4,-4,36,11,35,-56,-20
1461663364134584,22,0,9,-10,-1,19,54,-6
1461663364135585,-2,-2,3,42,32,-14,-46,-8
1461663364135585,-25,1,1,-29,-4,68,-34,-25
1461663364149642,-4,9,-14,18,-13,-59,-36,2
1461663364149642,-18,4,26,25,6,29,2,-5
1461663364164663,15,2,-12,-54,-18,-4,49,20
1461663364164663,-36,-11,-45,-68,-64,-40,3,-7
1461663364171669,8,-4,16,61,69,18,16,8
1461663364171669,-1,3,10,28,36,-5,11,3
1461663364179675,-5,-1,3,8,10,14,4,3
1461663364179675,3,-3,4,-16,-2,-13,-11,1
1461663364194685,13,-4,24,83,-1,-8,-2,-6
1461663364194685,-1,-11,-1,-24,-10,-16,-5,-3
1461663364195628,-4,-17,-21,-29,-11,9,-7,-19
1461663364195628,39,-15,22,14,11,7,5,8
1461663364209668,22,-11,-33,-37,-21,-16,22,33
1461663364209668,-13,5,6,-2,-8,-24,33,21
1461663364224706,-7,0,4,15,4,19,-13,-5
1461663364224706,-4,2,7,2,-4,-40,-92,-43
1461663364231711,12,11,-6,1,1,22,4,-2
1461663364231711,-16,13,1,-6,-12,12,-12,-1
1461663364239670,-6,-45,-20,-1,0,26,35,5
1461663364239670,-22,-128,6,13,12,-16,36,10
1461663364254674,-2,-12,-18,-43,-35,-23,-15,-6
1461663364254674,-19,16,3,-11,13,0,-14,-5
1461663364255671,7,62,31,2,17,-5,7,3
1461663364255671,7,91,-9,41,26,9,6,6
1461663364269687,-3,62,-20,-27,-43,-20,-13,-9
1461663364269687,-8,38,9,-32,8,16,3,0
1461663364277714,-1,22,8,-22,5,3,-16,-15
1461663364277714,1,53,1,55,34,-2,9,8
1461663364291711,-2,127,-3,4,-1,6,14,23
1461663364291711,-25,127,-1,9,-26,-8,-18,-13
1461663364299717,-7,84,-8,9,-8,-15,14,23
1461663364299717,9,-18,-3,-33,-15,-16,7,-3
1461663364314750,-47,78,12,5,7,17,-10,-41
1461663364314750,-43,-8,14,0,-9,-34,-34,-13
1461663364315727,34,-92,0,11,5,48,13,29
1461663364315727,42,-86,2,-15,-9,-4,23,23
1461663364337739,-25,-38,-1,0,11,22,23,-20
1461663364337739,-48,-97,3,12,8,-3,1,-15
1461663364338740,27,-48,-12,-2,-6,-19,-7,18
1461663364338740,48,-120,1,-14,-9,-8,-3,24
1461663364351777,-30,-128,-6,-3,-1,-15,-17,-30
1461663364351777,-52,-112,1,-18,6,3,1,-21
1461663364359742,39,-92,16,63,39,0,0,25
1461663364359742,41,-24,10,15,15,18,-3,13
1461663364374783,-35,42,-8,0,1,-7,-2,-26
1461663364374783,-35,35,-6,-17,-27,8,2,-13
1461663364375784,36,20,-13,-20,-20,-5,-7,23
1461663364375784,40,45,-2,-1,-4,-5,-3,8
1461663364389766,-32,56,0,0,1,-8,8,-46
1461663364389766,-36,61,6,7,-4,1,-8,0
1461663364397772,-14,-41,-20,-11,-4,20,2,45
1461663364397772,16,22,-1,-1,-4,2,1,17
1461663364411782,-3,-124,-5,-4,0,-5,-1,-37
1461663364411782,-9,-16,2,6,7,0,3,-9
1461663364419793,17,35,2,-2,-8,-13,-3,28
1461663364419793,16,15,4,-3,1,7,9,23
1461663364434814,-5,32,-15,-4,1,-7,9,-23
1461663364434814,-19,15,-7,3,3,9,-13,-37
1461663364435800,10,13,1,-1,-6,-7,-6,24
1461663364435800,5,50,3,-9,-9,-1,-2,9
1461663364448809,-6,63,-1,-5,4,1,-2,-25
1461663364448809,-18,14,2,20,13,5,11,-3
1461663364456829,11,19,-2,-4,-1,-3,-2,19
1461663364456829,9,16,-6,0,1,11,1,7
1461663364472843,-9,26,19,4,0,-3,-1,-23
1461663364472843,-11,2,0,-10,-9,-1,2,-3
1461663364479891,7,-15,4,-7,-6,-13,-7,13
1461663364479891,9,-3,-9,5,8,15,3,5
1461663364494842,-6,26,-3,-5,-1,-5,-7,-19
1461663364494842,-13,-13,-2,0,0,-5,1,0
1461663364495842,6,-27,-1,-5,-3,6,-1,15
1461663364495842,1,-20,0,-5,-1,12,2,1
1461663364508867,-13,21,-1,2,0,-10,-4,-13
1461663364508867,0,29,14,8,4,-5,1,7
1461663364516872,0,0,-6,3,0,-6,-2,8
1461663364516872,4,-6,-4,-3,-3,3,0,0
1461663364531866,-6,-8,-12,1,1,4,-3,-11
1461663364531866,-6,2,-7,0,-1,4,4,0
1461663364539883,0,0,10,-4,-7,-7,-5,3
1461663364539883,10,20,7,-7,-5,-1,-1,3
1461663364554893,-5,6,-15,-6,1,-5,-2,-7
1461663364554893,-11,8,9,18,2,3,1,-4
1461663364555893,10,25,3,1,2,4,3,5
1461663364555893,7,15,0,-3,3,-7,-2,0
1461663364568957,-6,-14,0,9,3,-3,-3,-7
1461663364568957,-3,2,-7,-5,-4,-1,1,2
1461663364576955,7,-5,3,-2,-4,0,1,5
1461663364576955,-1,-9,-7,0,-3,-6,-2,-1
1461663364591908,1,-6,0,-4,-7,1,-2,-5
1461663364591908,-9,-11,-6,-2,0,-2,-2,2
1461663364599974,5,-4,3,1,1,1,2,4
1461663364599974,4,-5,2,-3,-5,-11,-4,-3
1461663364614945,-9,-5,-1,5,1,2,-4,-5
1461663364614945,-2,1,2,-3,-1,-1,-1,3
1461663364615940,6,2,3,0,-2,-14,-3,2
1461663364615940,5,-6,-2,4,2,23,5,-1
1461663364628945,-7,-4,0,-1,-4,-4,-1,-6
1461663364628945,-4,8,11,-2,-1,-1,1,0
1461663364636940,2,-6,-5,-1,1,6,1,-1
1461663364636940,0,-11,-11,-5,-7,-12,-5,-2
1461663364652020,-4,-3,9,-1,-6,0,-2,-3
1461663364652020,-5,-6,-20,-11,12,4,0,1
1461663364659959,7,7,4,6,6,0,2,3
1461663364659959,7,-1,3,8,5,-3,-1,-1
1461663364675023,-1,-1,-2,-11,-9,-2,0,-1
1461663364675023,-5,-7,4,3,-5,-4,-2,-1
1461663364675968,-3,-3,-3,-2,0,3,-2,-2
1461663364675968,-2,-14,-3,-2,-2,-3,-2,-3
1461663364688977,-5,-18,-11,-3,-1,-2,-4,-2
1461663364688977,1,4,8,2,1,1,-1,1
1461663364697041,-11,-17,-14,-7,-5,-2,-3,-3
1461663364697041,0,-6,2,0,-2,-4,-5,-3
1461663364711995,0,-4,-1,-1,1,4,2,-1
1461663364711995,0,1,2,-3,-2,1,1,0
1461663364719999,4,2,-7,-2,-3,1,0,-1
1461663364719999,5,9,8,0,1,-3,-1,-1
1461663364735007,-6,-6,-6,-4,-1,-6,-4,-3
1461663364735007,-3,0,-2,-9,-6,-1,-1,2
1461663364736009,0,2,3,5,2,0,0,-1
1461663364736009,0,4,-4,-6,-2,-6,-1,-3
1461663364758036,0,2,10,16,7,0,0,-4
1461663364758036,-5,10,2,-2,-1,0,-2,-2
1461663364759038,0,2,-1,-4,-1,0,1,0
1461663364759038,-3,-2,-3,-2,0,1,2,-3
1461663364772099,-3,0,-2,-6,-4,-8,0,-3
1461663364772099,-5,-11,-6,0,-3,2,-1,2
1461663364780103,2,2,3,2,0,-1,-3,-1
1461663364780103,3,2,5,-2,-1,0,0,-3
1461663364795080,-4,-7,-6,-3,1,0,-3,-3
1461663364795080,-2,-1,-5,2,-3,-4,1,3
1461663364802084,0,-7,-6,-3,-2,-2,-3,-2
1461663364802084,8,-3,-2,0,-1,3,1,-1
1461663364809089,-12,-8,-3,-4,-2,0,-3,-4
1461663364809089,-2,1,2,2,-1,1,-3,2
1461663364817095,3,2,-1,-1,-3,1,1,1
1461663364817095,5,13,3,1,1,-1,-3,-3
1461663364832095,0,0,-3,-3,-3,-3,-2,-1
1461663364832095,-8,-6,-2,-2,0,-5,0,0
1461663364840100,-5,-15,-8,-5,-5,0,-1,-4
1461663364840100,3,3,3,8,4,-1,0,0
1461663364855096,0,6,-6,-10,-7,-3,-2,-2
1461663364855096,-4,0,7,15,11,6,2,3
1461663364856094,5,6,8,5,3,-2,2,-1
1461663364856094,-1,-4,-1,0,3,2,1,-1
1461663364869104,1,-2,1,-4,-2,0,-2,2
1461663364869104,-5,-4,-3,-4,-5,-7,-3,-2
1461663364885153,-3,-2,-3,-5,-3,3,0,-1
1461663364885153,2,0,-1,-2,-1,1,0,-3
1461663364892119,-3,-3,-2,1,1,-3,-1,0
1461663364892119,-3,-2,0,-2,-4,-3,-1,1
1461663364900274,1,4,0,3,0,-1,0,-1
1461663364900274,-4,-11,-4,-4,-1,-2,-2,-5
1461663364914254,3,0,0,-1,2,2,0,1
1461663364914254,-3,1,-5,-4,-4,0,-1,1
1461663364922264,0,-2,2,10,6,2,1,-1
1461663364922264,4,-5,-2,5,0,-1,-2,-3
1461663364929298,-1,-5,-3,-2,-2,-2,-3,-1
1461663364929298,-4,0,2,-6,-3,-1,0,1
1461663364936244,1,6,1,-2,-3,-2,-1,-1
1461663364936244,-2,-10,-10,-8,-7,-4,-2,-6
1461663364951281,2,4,6,6,1,-2,-2,1
1461663364951281,-1,-2,-6,-6,-4,-1,-1,2
1461663364960287,-3,-7,-3,2,4,1,-3,-1
1461663364960287,2,5,1,-1,-1,-1,-1,0
1461663364974287,4,1,-2,-4,-4,-3,-1,0
1461663364974287,-3,-3,-7,-5,-1,-1,-1,0
1461663364982292,-2,0,1,-1,0,-3,-2,-3
1461663364982292,1,1,-1,-3,-2,1,0,-1
1461663364989299,-3,-5,0,-3,-3,1,-1,0
1461663364989299,0,1,1,3,1,-2,0,2
1461663364996303,-1,-5,-1,-3,0,-1,0,-3
1461663364996303,5,1,3,0,-3,-2,-1,-4
1461663365011332,-7,-6,-5,2,0,0,-1,-1
1461663365011332,-2,-5,-1,0,0,-2,1,1
1461663365020303,0,5,-1,-3,-1,0,1,-2
1461663365020303,1,-1,0,-5,-3,-1,0,-2
1461663365034349,0,1,2,4,1,-2,-2,-1
1461663365034349,-4,2,0,-1,-2,-3,-3,1
1461663365042315,0,-4,2,-2,-3,-1,0,-1
1461663365042315,6,4,-1,-2,-1,-1,-1,-4
1461663365049360,2,1,-3,-3,-3,-2,1,1
1461663365049360,-7,-3,-3,0,0,-3,-4,2
1461663365065334,-1,1,-2,-1,-1,-1,-2,-2
1461663365065334,3,6,3,2,2,0,-1,-4
1461663365080344,-2,-1,-3,-4,-2,0,-1,-3
1461663365080344,-3,-6,3,4,1,0,0,3
1461663365081345,-6,-4,-5,-5,-3,-4,-1,-2
1461663365081345,-1,-3,-2,3,0,-3,-2,-4
1461663365094381,2,0,-1,1,0,0,-3,0
1461663365094381,-9,-4,-2,-6,-3,0,-1,1
1461663365102388,1,1,3,4,2,-1,0,-1
1461663365102388,-1,-7,-6,-1,0,-2,-1,-1
1461663365118371,-1,5,3,-4,-2,-3,-1,-1
1461663365118371,-1,-3,-4,-4,0,-1,1,1
1461663365118371,4,5,-3,-7,-5,0,-1,1
1461663365118371,-3,-4,-2,12,5,0,-1,-5
1461663365131394,-8,-6,0,-1,-3,-1,-2,-3
1461663365131394,1,6,1,3,3,1,-1,2
1461663365139400,1,4,0,-4,-1,0,-1,0
1461663365139400,3,-10,-3,-8,-4,-1,-2,-2
1461663365154395,-5,-4,-5,-4,-4,-2,-1,-1
1461663365154395,-2,1,1,-1,1,2,-1,2
1461663365162401,-1,-3,-3,-1,-2,-2,-1,-2
1461663365162401,0,3,1,-1,-2,0,-1,-4
1461663365177411,0,-1,-4,1,-1,-1,-2,-1
1461663365177411,-3,-6,-4,-1,-2,-2,-1,1
1461663365178412,1,-1,0,0,-1,-1,-1,-1
1461663365178412,3,-3,-1,-1,-1,-1,-1,-2
1461663365191422,-2,0,0,-2,1,-1,-2,0
1461663365191422,-2,5,1,0,-2,-2,0,0
1461663365199465,-2,-3,-2,-2,-1,0,0,-1
1461663365199465,-1,0,1,0,0,0,0,-4
1461663365214457,-1,1,1,4,0,-1,-2,-1
1461663365214457,-4,-8,-5,-3,-2,0,-2,1
1461663365222502,2,-1,1,6,3,1,-2,-2
1461663365222502,1,-1,-1,-4,-3,-2,-2,-4
1461663365237453,-1,1,-2,-6,-4,1,-1,-1
1461663365237453,-2,0,2,2,1,1,-1,2
1461663365238454,2,-1,-6,-13,-4,-3,-2,-1
1461663365238454,5,5,3,-7,-4,-3,-5,-5
1461663365251529,-4,1,1,12,1,0,-1,-3
1461663365251529,-10,-11,-10,4,6,2,2,0
1461663365259468,-1,2,1,-8,-3,-2,1,0
1461663365259468,0,-5,-5,5,-1,-2,-1,1
1461663365274539,-5,1,1,-7,-3,-1,-1,0
1461663365274539,1,1,4,0,-3,-2,-2,1
1461663365282547,0,2,-3,-11,-3,-1,-1,-3
1461663365282547,3,2,9,25,10,1,1,-4
1461663365298496,-4,-7,-10,-8,-5,-5,-14,-1
1461663365298496,-1,2,-2,-9,-4,3,8,3
1461663365299534,2,-2,9,21,8,7,14,2
1461663365299534,0,0,-1,-8,-4,-2,2,-4
1461663365311564,-3,-5,0,4,3,-1,2,-2
1461663365311564,-2,3,0,-8,-4,-4,-10,0
1461663365327519,0,3,1,0,-4,-4,-3,0
1461663365327519,1,-2,-2,0,3,2,-1,-1
1461663365334581,-2,2,-1,-2,2,2,-1,1
1461663365334581,-3,-2,-1,4,2,-1,-2,2
1461663365342542,-3,-7,-1,4,0,0,-1,-4
1461663365342542,-1,-4,-5,-9,-7,-4,-4,-5
1461663365357537,-2,0,0,-2,-2,-2,1,0
1461663365357537,-2,3,6,2,1,-1,0,2
1461663365364543,1,0,0,5,3,-1,-3,-1
1461663365364543,0,-5,-2,-6,-2,-2,-4,-5
1461663365371565,1,3,-1,-6,-1,1,1,0
1461663365371565,-5,-3,2,3,-1,-2,-1,-1
1461663365379614,-2,-2,-6,-1,0,-2,-4,-3
1461663365379614,2,5,-1,-1,-3,0,-1,-3
1461663365394564,-9,-12,-4,-8,-5,-2,-1,0
1461663365394564,-1,-1,-1,5,3,-1,-2,1
1461663365402571,1,-5,-2,-4,-1,0,0,-1
1461663365402571,4,7,1,0,1,-2,-1,-1
1461663365417640,-4,-2,-2,2,-2,0,0,-1
1461663365417640,-5,-3,2,10,2,-1,-3,2
1461663365418599,1,1,-3,-1,0,-1,0,-1
1461663365418599,1,-2,-4,-4,-3,-2,0,-3
1461663365440703,2,6,1,-1,-3,-2,-2,0
1461663365440703,-3,-4,-5,-5,-3,-2,-2,-1
1461663365441704,-5,-6,-2,0,-1,-1,-2,-2
1461663365441704,0,-5,-1,4,2,1,4,0
1461663365454704,-4,-4,-4,-7,-2,-1,-2,1
1461663365454704,-2,4,2,-3,-2,-1,-1,3
1461663365462710,3,0,0,0,-1,1,-3,-2
1461663365462710,0,-4,-1,-4,-2,0,-2,-3
1461663365477722,-3,-1,2,5,2,-2,0,1
1461663365477722,4,4,-1,-4,0,1,1,2
1461663365477722,-1,-1,0,-3,-2,-3,-2,0
1461663365477722,-3,-2,-3,1,-1,-2,-1,-2
1461663365491727,-1,2,-6,-13,-4,-2,1,1
1461663365491727,-2,6,8,26,7,-1,-1,1
1461663365499732,1,-9,-5,-4,0,-2,-2,-1
1461663365499732,-2,3,-3,-6,-3,-2,-2,-5
1461663365514757,-4,-5,1,-1,-1,-1,-2,-1
1461663365514757,1,6,-3,-18,-9,-3,0,1
1461663365522805,1,2,3,1,4,2,0,-3
1461663365522805,-1,-13,-2,2,-3,-2,-4,-5
1461663365537758,0,4,0,2,2,-2,0,1
1461663365537758,-7,-6,-8,-11,-6,-2,0,0
1461663365537758,5,2,0,0,-2,-2,-2,-1
1461663365537758,1,-2,-3,-7,-5,-1,-2,-5
1461663365551826,-1,-1,-1,2,-2,2,-1,2
1461663365551826,-1,-2,-1,1,1,2,0,3
1461663365559785,2,1,1,4,0,1,1,-1
1461663365559785,1,-2,-4,-3,-2,-2,-1,-5
1461663365573841,-4,-1,0,3,-2,-1,-1,0
1461663365573841,-4,-3,0,-3,-1,0,-2,0
1461663365582855,3,8,0,-6,-2,-1,-2,0
1461663365582855,4,0,7,7,1,0,-2,-2
1461663365597816,-7,-6,-1,9,2,-2,1,-2
1461663365597816,-3,-6,0,3,0,-1,0,3
1461663365597816,-4,0,-2,-2,0,0,-2,-3
1461663365597816,3,3,-3,-7,-3,-1,-4,-3
1461663365611869,0,0,-1,-10,-6,-3,-4,0
1461663365611869,0,-2,1,3,4,1,1,2
1461663365619829,1,4,-1,5,-1,-1,1,-1
1461663365619829,-1,-5,-1,4,2,-1,0,-4
1461663365633882,-1,5,-1,-5,-2,-1,-2,1
1461663365633882,-2,1,-1,-4,-3,-1,0,0
1461663365642832,1,-3,0,-6,-4,-1,0,-2
1461663365642832,1,0,-2,-3,-3,1,0,-3
1461663365665877,-3,-4,-6,2,0,-2,-1,-2
1461663365665877,-5,-2,-4,-8,-3,-3,-3,-2
1461663365666856,3,6,2,2,0,-1,0,-1
1461663365666856,-1,-10,-5,-4,-1,-1,0,-3
1461663365671860,-4,-5,-3,-4,0,0,0,2
1461663365671860,-6,-2,3,5,0,-1,-1,-2
1461663365679921,4,1,-3,-2,0,-1,0,-2
1461663365679921,-4,-6,-2,-3,-1,-1,-1,-3
1461663365694899,-6,1,2,-2,-3,-1,0,0
1461663365694899,-1,-1,-4,-9,-1,-1,-1,2
1461663365702880,-1,-3,0,5,1,0,-2,-1
1461663365702880,3,2,-3,-4,-3,-2,-2,-4
1461663365717914,0,0,0,2,1,-1,-1,1
1461663365717914,-3,0,0,-7,-6,0,-2,1
1461663365717914,0,-4,-1,-3,-2,0,-2,-2
1461663365717914,1,-1,-6,-2,-5,-3,-2,-2
1461663365731933,-3,-2,0,-10,-5,-3,-3,-1
1461663365731933,0,2,2,16,7,1,1,1
1461663365739902,-1,-2,-1,-5,0,-1,1,-2
1461663365739902,-1,-1,-2,1,-1,-2,-2,-3
1461663365753926,-1,3,-1,2,-1,1,-1,3
1461663365753926,-1,0,0,-8,-4,-3,-2,-1
1461663365761931,1,-2,2,8,5,-3,0,-4
1461663365761931,-1,-8,-8,-7,-2,-4,-2,-6
1461663365777967,-5,-8,-1,5,-1,0,-1,1
1461663365777967,-2,-1,-2,-2,-2,2,-1,2
1461663365778929,3,1,-4,-9,-6,-1,-1,-2
1461663365778929,5,8,5,-2,-1,-1,1,-4
1461663365791950,0,1,-2,2,1,-1,-1,0
1461663365791950,-1,0,3,10,5,1,-1,3
1461663365800002,-2,-5,-4,-9,-5,-4,-5,-3
1461663365800002,3,0,6,7,3,0,1,-2
1461663365814016,-7,-4,-3,2,-1,-1,0,1
1461663365814016,-2,-2,0,-5,-3,-2,-1,1
1461663365822972,-1,1,-2,3,0,1,0,-3
1461663365822972,-1,-1,-1,-4,0,1,1,-3
1461663365837971,0,1,-1,-6,-3,-1,-1,-1
1461663365837971,-2,0,2,6,0,-2,-1,0
1461663365837971,4,-1,-7,-12,-3,-2,-2,-3
1461663365837971,0,2,5,5,-1,-1,0,-4
1461663365851982,-4,-8,-4,5,1,1,0,2
1461663365851982,-2,-3,-4,-2,1,0,-1,1
1461663365859987,2,-4,2,5,2,-2,1,0
1461663365859987,0,6,-4,-10,-7,-3,-3,-4
1461663365873994,-8,-5,-1,-6,-5,-5,0,-2
1461663365873994,-1,3,0,-1,2,-1,2,3
1461663365882000,-2,-5,2,7,1,1,-1,-1
1461663365882000,3,2,-2,-2,-1,-2,-3,-3
1461663365897011,-4,-9,-1,2,1,0,-3,-1
1461663365897011,-2,0,0,-1,-3,-2,0,1
1461663365905017,3,4,4,3,2,0,0,-1
1461663365905017,1,-4,-4,1,-3,0,-2,-2
1461663365912022,-8,1,-1,-7,-2,-2,-2,-2
1461663365912022,-2,2,-1,-5,-2,-2,-1,-1
1461663365920027,5,2,5,6,1,0,0,-2
1461663365920027,-2,-3,0,6,0,0,-2,-3
1461663365934038,4,10,3,8,3,1,1,3
1461663365934038,-3,-13,-3,-4,-3,-2,0,2
1461663365942045,-1,6,0,1,0,-1,-1,-3
1461663365942045,3,-2,-14,-8,0,-2,-2,-1
1461663365957056,-12,-2,0,-6,-2,0,0,-2
1461663365957056,0,5,-3,0,-2,-2,0,1
1461663365973065,3,1,-3,5,3,2,0,-2
1461663365973065,-5,-16,-7,-7,-2,-2,-2,-4
1461663365975067,-2,-1,10,4,-2,-3,-3,0
1461663365975067,-1,7,-1,-14,-5,-3,0,0
1461663365980070,8,3,-2,3,2,-2,-2,0
1461663365980070,-9,-1,-14,-21,-5,0,-5,-4
1461663365994079,9,1,3,18,3,-1,0,2
1461663365994079,-12,-17,-8,-4,0,0,-1,-2
1461663366002088,3,5,4,-7,-6,-4,-1,-2
1461663366002088,-5,0,3,9,0,-3,0,-4
1461663366017097,-5,4,-3,-19,-10,-3,-3,-2
1461663366017097,5,4,3,3,6,1,1,0
1461663366025103,-4,-4,-2,-6,1,-2,-1,1
1461663366025103,4,-2,3,5,0,-1,0,-2
1461663366039112,0,-3,-9,-4,-1,-1,0,1
1461663366039112,1,-3,-1,4,-8,0,1,1
1461663366047176,0,8,13,16,14,6,8,0
1461663366047176,-4,-5,2,-1,0,8,17,-2
1461663366054130,2,2,1,-7,3,4,-10,3
1461663366054130,-6,-10,-9,-4,-9,-12,-11,2
1461663366062134,2,11,-5,-11,-11,-18,-20,-3
1461663366062134,7,-28,-11,-9,1,-6,-7,0
1461663366077147,-11,-9,-5,-9,-13,-3,1,-5
1461663366077147,4,31,-7,22,14,8,8,-1
1461663366085147,-7,-24,-8,-9,-9,3,8,-5
1461663366085147,4,25,10,-13,-11,-7,-3,-2
1461663366100158,-6,-13,-10,3,5,5,10,9
1461663366100158,-1,1,6,-38,-17,-1,-4,-9
1461663366101158,-4,7,0,32,9,6,12,-2
1461663366101158,7,1,5,11,8,15,28,10
1461663366114177,7,23,12,17,13,-2,-1,6
1461663366114177,-3,-15,-12,6,2,0,-36,-7
1461663366122183,16,7,-4,-23,-18,-6,-24,-11
1461663366122183,-10,-7,-3,-11,-9,-27,-34,-7
1461663366137181,-12,-3,11,31,0,3,33,9
1461663366137181,-10,-11,-17,-19,13,7,13,-6
1461663366145188,1,2,-11,-16,-4,4,-11,-13
1461663366145188,16,19,13,25,7,7,29,16
1461663366160197,1,-51,-8,13,0,-8,-48,6
1461663366160197,-12,16,40,20,-3,-10,1,-7
1461663366160197,-1,-2,-15,-38,-14,3,8,-1
1461663366160197,11,26,-6,23,13,12,30,1
1461663366174246,6,-6,-5,-14,6,8,7,5
1461663366174246,-7,19,-31,-14,-17,0,-2,-6
1461663366182252,-19,-59,37,40,15,-3,-22,-16
1461663366182252,3,1,25,-9,-11,-6,-22,4
1461663366196282,1,17,-12,38,12,0,25,12
1461663366196282,15,-4,-10,-43,-3,3,35,11
1461663366205229,0,21,15,44,13,-2,-28,-9
1461663366205229,-12,2,-37,-34,-12,-7,-22,-5
1461663366219256,1,38,38,4,-1,11,13,8
1461663366219256,10,12,-1,50,26,4,10,12
1461663366228246,45,49,-7,-17,-4,6,61,32
1461663366228246,-61,-20,-5,-38,-25,-6,-68,-44
1461663366234315,-16,91,-7,-30,-25,-26,-47,-26
1461663366234315,22,21,22,-6,7,3,-4,-5
1461663366249280,-32,0,-26,-24,-20,-8,23,-3
1461663366249280,17,102,-18,5,10,6,-4,20
1461663366265284,-8,-91,6,23,18,33,87,12
1461663366265284,3,-106,-17,-91,-36,-3,-8,-11
1461663366267285,0,-48,-7,44,3,-16,-35,-18
1461663366267285,12,-110,34,10,0,-16,-37,3
1461663366279340,13,-84,-21,26,10,-19,-53,-8
1461663366279340,-6,16,19,47,47,7,20,15
1461663366288290,-37,74,-106,-128,-52,-2,0,-15
1461663366288290,16,122,49,38,-9,-5,40,25
1461663366294298,10,111,-7,45,28,-3,29,19
1461663366294298,-9,53,-1,-7,-14,-3,-35,-2
1461663366303301,-26,-3,16,10,10,2,1,-17
1461663366303301,4,-51,35,-20,-18,-2,-22,-23
1461663366316366,3,-27,5,2,11,-4,-36,-4
1461663366316366,-8,-16,-27,-24,-24,-5,27,0
1461663366325378,28,-12,13,30,19,11,32,-17
1461663366325378,10,-61,-39,-74,-4,22,15,18
1461663366339336,26,-13,-11,63,9,-19,-52,10
1461663366339336,-74,8,16,-12,-10,-24,-32,-10
1461663366348334,32,-9,61,-37,-25,24,60,15
1461663366348334,3,-36,-51,31,14,2,-10,-25
1461663366354347,32,24,-12,-27,-6,-26,-25,18
1461663366354347,-8,21,-5,-20,-7,5,53,24
1461663366363344,-23,2,7,14,3,-3,-75,-13
1461663366363344,-14,-17,49,3,-16,-15,-11,-51
1461663366376409,-8,1,0,-30,17,1,2,-9
1461663366376409,37,4,-20,90,40,16,75,37
1461663366385403,1,-15,-3,-49,-24,6,-2,13
1461663366385403,21,-20,34,42,14,10,48,-11
1461663366399386,-43,-1,-6,-63,-20,18,-39,-31
1461663366399386,45,-2,-34,109,58,17,-33,1
1461663366408374,-12,7,-7,50,-8,-39,-2,42
1461663366408374,1,-19,-46,-58,-19,13,87,5
1461663366414448,-12,-5,6,-69,-29,0,-5,13
1461663366414448,8,3,-25,-47,-47,-44,-70,-8
1461663366423410,9,10,50,34,11,1,-23,8
1461663366423410,-19,-19,-58,22,42,-5,-84,-51
1461663366436403,-63,4,28,-27,-14,33,89,-21
1461663366436403,5,10,3,-57,-19,28,15,10
1461663366445403,3,3,-21,-53,-17,-28,-58,6
1461663366445403,-7,-9,-8,18,-5,-28,-45,-20
1461663366468419,-7,-2,-3,-16,-17,-8,26,-12
1461663366468419,-4,8,-11,28,6,-5,19,26
1461663366469420,28,-2,32,74,31,21,46,38
1461663366469420,-10,-18,-47,5,0,6,-23,-12
1461663366474420,28,1,-14,68,14,6,15,6
1461663366474420,-2,5,30,-95,-39,5,65,15
1461663366483427,-58,7,-39,45,16,15,6,-37
1461663366483427,8,-38,20,-44,-18,-27,-80,-17
1461663366496438,-26,8,1,-20,-17,-54,-91,-33
1461663366496438,-68,20,35,30,-3,4,21,15
1461663366505441,40,4,15,-20,35,28,31,35
1461663366505441,43,-25,-26,-63,-37,-20,24,-2
1461663366520453,4,5,22,20,19,17,-3,-5
1461663366520453,-38,12,38,42,28,21,-2,-8
1461663366528458,-46,12,-9,-113,-16,41,77,7
1461663366528458,52,-25,-11,110,60,-7,-59,-7
1461663366534465,77,-11,38,-80,-43,-28,-14,48
1461663366534465,-67,17,-3,-49,-35,-5,-13,-28
1461663366549532,-51,13,-25,76,49,-17,-51,-46
1461663366549532,47,-14,53,6,14,-2,39,-18
1461663366556491,-11,-3,-20,-28,12,64,46,30
1461663366556491,-51,9,-3,1,-27,-53,-112,-33
1461663366565490,-12,0,-10,-30,-7,-14,-43,13
1461663366565490,41,-21,10,-12,-17,7,26,-11
1461663366579566,27,13,-8,-21,-21,-12,29,17
1461663366579566,-34,10,23,-40,9,55,69,14
1461663366589530,14,3,5,-42,-25,-34,61,21
1461663366589530,8,-14,48,60,23,9,49,57
1461663366594531,10,5,-38,-63,-17,-22,-90,-48
1461663366594531,-13,8,-5,-43,-50,-10,-55,-73
1461663366610521,-12,-9,29,-33,6,19,-53,-59
1461663366610521,15,-14,21,30,-5,-13,44,74
1461663366625527,46,8,0,16,16,19,104,48
1461663366625527,33,-1,-12,-93,-34,-3,65,-44
1461663366627566,-86,-2,-7,83,62,46,-16,13
1461663366627566,5,-7,21,9,-26,-23,22,62
1461663366639550,-28,9,-4,20,10,-18,-128,-14
1461663366639550,-12,5,2,12,18,-22,-22,-57
1461663366648556,22,1,-52,-80,-43,20,50,-11
1461663366648556,8,-9,5,66,13,-41,-47,66
1461663366654548,13,2,-10,-2,5,0,-1,-23
1461663366654548,-26,5,7,-48,-38,-17,4,-6
1461663366663555,-16,5,-20,79,44,7,24,-9
1461663366663555,5,-9,-64,-128,-44,39,72,30
1461663366676620,53,5,42,69,12,3,-16,-27
1461663366676620,-16,6,23,105,26,-30,-104,-45
1461663366685579,5,-15,-19,-15,-26,-16,-28,4
1461663366685579,-8,-1,-72,-91,-66,-2,56,24
1461663366699587,-79,-3,101,85,72,40,35,-11
1461663366699587,-8,1,-15,10,43,11,-38,-5
1461663366723598,55,2,-9,-59,-8,-9,-19,-2
1461663366723598,23,-3,18,-67,4,23,-115,-12
1461663366724612,-86,3,21,-13,-59,-69,-45,13
1461663366724612,59,0,-28,43,14,-2,39,-4
1461663366726632,-52,9,16,27,15,-15,6,10
1461663366726632,-8,-5,14,-49,-24,35,-7,8
1461663366736622,28,10,-71,-4,-3,14,65,19
1461663366736622,-42,0,-42,39,19,-18,-74,-47
1461663366745614,79,-8,61,9,-21,-25,10,-5
1461663366745614,21,-1,-13,-54,18,28,48,13
1461663366759621,-22,-1,-26,-30,1,3,3,5
1461663366759621,-1,5,1,99,88,30,28,6
1461663366768628,87,-14,-13,-128,-49,3,49,-41
1461663366768628,-11,-3,5,31,31,35,-29,49
1461663366774659,-53,-1,-31,39,44,-65,-81,-35
1461663366774659,-17,3,-4,-122,-36,19,61,32
1461663366783752,79,-2,-22,1,17,33,-29,-27
1461663366783752,-50,-24,22,38,-14,-69,-25,1
1461663366796760,26,9,38,-22,-41,19,28,16
1461663366796760,-9,10,20,19,-7,-5,-101,-36
1461663366805757,-10,2,-33,-18,-50,-64,-25,-23
1461663366805757,0,-14,-41,-11,10,41,71,37
1461663366819767,18,-16,24,-128,-88,-9,-17,-18
1461663366819767,-22,1,-13,0,26,12,49,1
1461663366828774,84,10,73,62,70,42,9,19
1461663366828774,61,-19,-25,-55,-18,-32,-21,-3
1461663366834788,-78,-1,3,-40,-37,-14,5,-16
1461663366834788,-16,7,-6,-80,-30,4,33,5
1461663366842792,49,-12,20,-31,-8,1,26,42
1461663366842792,-99,2,-17,77,66,26,-21,-69
1461663366856802,-20,-12,-30,-42,-29,-21,30,15
1461663366856802,26,7,9,27,3,-14,-42,43
1461663366865791,-80,-16,-14,24,-19,-48,-41,-10
1461663366865791,49,2,23,-54,-34,12,-32,-10
1461663366878860,10,1,1,-7,2,-15,-3,-1
1461663366878860,28,-6,-36,48,-11,-7,-17,-29
1461663366888904,54,-3,14,-36,-19,-5,4,24
1461663366888904,-74,-11,-77,-44,-7,9,19,-5
1461663366893901,3,7,43,65,70,39,23,-15
1461663366893901,-2,5,15,-28,10,-6,-4,13
1461663366902912,10,-7,-15,-39,-45,-31,-49,-9
1461663366902912,-30,3,80,111,81,25,-2,-21
1461663366916919,-11,-3,-28,-26,-4,10,26,18
1461663366916919,-8,-3,37,-49,-5,-5,66,33
1461663366925928,-19,-19,-21,-65,-37,51,104,6
1461663366925928,17,18,5,1,-24,-44,-106,-9
1461663366938933,-61,2,-2,45,9,-51,-110,-15
1461663366938933,97,-3,33,7,12,21,54,37
1461663366947956,-128,-4,-32,7,-2,19,4,-17
1461663366947956,37,0,-5,-5,-17,-39,-3,-16
1461663366953951,54,17,32,-9,0,26,4,4
1461663366953951,-41,-7,-32,-28,-23,0,20,-17
1461663366962981,63,0,-6,-17,-15,-19,-42,5
1461663366962981,26,3,17,56,53,23,14,5
1461663366976989,-28,3,-46,-36,17,9,12,-15
1461663366976989,-15,5,-43,-93,-89,-26,-22,-3
1461663366985984,-16,-12,69,127,107,20,-19,-2
1461663366985984,-10,4,-4,-88,-10,-14,16,-4
1461663366998993,-15,2,4,-46,-15,12,17,-9
1461663366998993,25,-9,-27,51,60,34,60,24
1461663367007984,-6,-1,-28,-57,-49,-20,10,-2
1461663367007984,-17,-12,4,21,-19,7,-72,-14
1461663367023012,1,6,-10,-4,-13,-21,13,37
1461663367023012,-35,-2,12,7,-6,-21,-5,-38
1461663367025008,-30,-12,-28,17,0,-38,-67,-53
1461663367025008,5,2,17,6,-5,56,127,43
1461663367037017,3,4,-40,-20,-23,9,-14,33
1461663367037017,9,5,18,-4,-20,-37,-107,-20
1461663367046073,41,-6,-5,-27,22,1,34,27
1461663367046073,10,2,33,-8,-13,4,14,-29
1461663367059020,-15,-8,22,85,58,51,53,-6
1461663367059020,-15,-1,-4,-4,-26,-5,5,0
1461663367068043,26,-6,20,56,41,12,-13,13
1461663367068043,29,0,-10,-128,-91,-48,-25,4
1461663367084061,-3,3,-17,108,98,24,18,-8
1461663367084061,22,3,8,30,25,8,-18,-11
1461663367089047,-55,-12,-11,-41,-41,-15,19,28
1461663367089047,3,10,0,-16,-28,-18,-4,6
1461663367097052,-47,-11,-18,-66,-48,5,1,-15
1461663367097052,6,3,9,-2,2,-16,-24,-13
1461663367106058,-31,-12,-16,-15,-6,16,8,-13
1461663367106058,-2,8,-33,9,21,-8,51,26
1461663367119063,16,10,17,-11,-18,-30,-26,5
1461663367119063,5,-11,6,5,17,28,-56,7
1461663367128069,66,-4,0,9,-15,23,-75,-8
1461663367128069,8,10,2,26,18,0,-9,-1
1461663367142077,-18,-8,-25,-66,-51,-5,21,-29
1461663367142077,-43,-3,-2,-44,-16,-16,36,3
1461663367149082,24,-7,26,86,94,18,29,22
1461663367149082,24,4,26,80,49,6,-16,-6
1461663367157088,-6,1,-18,-15,14,-2,11,-1
1461663367157088,-11,-1,17,-4,-22,-3,1,0
1461663367166094,-1,-5,7,-46,-42,-21,-14,-1
1461663367166094,8,5,-33,3,-2,-3,-7,-11
1461663367179103,59,-4,0,8,-1,-3,1,1
1461663367179103,-45,2,17,1,9,15,9,21
1461663367188109,4,-20,-11,-8,-22,0,11,-2
1461663367188109,-35,8,8,-2,1,-3,43,27
1461663367202120,-15,-1,-15,-18,-11,3,15,-8
1461663367202120,1,-5,-2,11,23,13,-22,-23
1461663367209126,6,-93,14,-62,-56,-41,-69,5
1461663367209126,15,-53,-13,31,24,-4,2,7
1461663367217134,-15,-128,7,10,-2,11,18,-11
1461663367217134,-10,-122,12,66,40,14,46,4
1461663367226141,15,87,-16,-19,-1,-13,18,10
1461663367226141,8,127,0,-30,-8,-6,-34,-11
1461663367247155,-15,127,-3,-26,-10,17,-8,-6
1461663367247155,-8,69,-9,3,25,8,-3,-5
1461663367256170,-3,74,6,35,18,-15,-5,-5
1461663367256170,12,62,-11,-12,-17,-1,-27,-9
1461663367262175,-32,30,-2,4,-17,20,15,-26
1461663367262175,26,0,-10,-30,-21,-4,15,15
1461663367271232,-22,49,-1,5,-6,5,16,24
1461663367271232,17,36,2,-8,-10,-45,7,7
1461663367277212,-24,-27,8,0,6,30,-8,2
1461663367277212,-24,35,-6,-12,-15,2,18,-32
1461663367286188,-31,115,-17,-25,-16,-24,-39,-12
1461663367286188,-10,127,15,0,-17,-5,0,9
1461663367308225,14,25,-19,-29,-4,-25,-46,-23
1461663367308225,5,-52,12,46,28,-7,-5,2
1461663367310214,24,-52,1,32,32,14,15,10
1461663367310214,-7,-72,-2,-28,-9,6,1,4
1461663367330243,-8,-62,1,8,5,0,12,2
1461663367330243,-7,-10,-11,-18,-21,-4,1,-8
1461663367332214,10,-38,22,-13,-18,-17,-3,0
1461663367332214,-5,-33,-11,-9,-8,6,1,3
1461663367337218,-16,-75,-3,4,1,-25,-15,-3
1461663367337218,-5,-23,2,-5,-5,25,-5,-11
1461663367346239,11,-14,-11,3,1,-4,8,13
1461663367346239,12,-9,17,1,1,27,-1,7
1461663367359247,-16,-71,8,14,9,-5,7,-9
1461663367359247,-6,-128,-21,-26,-18,-39,-18,-5
1461663367368253,6,-122,4,-7,-2,0,3,-9
1461663367368253,-58,-90,4,11,10,-8,3,-11
1461663367382248,8,-27,-14,-2,-9,-18,-14,20
1461663367382248,54,-16,-10,-5,-3,-6,3,28
1461663367390265,6,21,-22,-40,-25,3,6,-9
1461663367390265,-36,42,26,79,43,12,-7,-20
1461663367396297,2,90,-3,-17,6,12,10,8
1461663367396297,40,98,13,12,6,2,-1,15
1461663367405276,-9,73,-12,13,3,7,5,-5
1461663367405276,-47,76,-17,-28,-20,2,-5,-26
1461663367419312,9,62,-26,3,-3,-25,-3,5
1461663367419312,39,-10,-30,-26,-14,23,22,31
1461663367428280,-8,-34,-5,3,1,9,-29,-29
1461663367428280,-46,11,14,-11,-9,-25,-14,-25
1461663367441301,18,4,21,10,6,36,15,18
1461663367441301,40,28,7,-9,-5,-24,-16,14
1461663367451300,-20,-25,-11,14,4,-3,11,-8
1461663367451300,-44,-16,3,-4,-1,-4,-2,-20
1461663367456311,17,19,7,10,0,-12,-1,15
1461663367456311,23,37,-1,0,-2,-12,-3,13
1461663367466308,-13,35,9,3,-1,9,4,-21
1461663367466308,-31,8,-15,-13,-9,-17,-8,-23
1461663367479374,11,4,5,-6,2,-3,1,26
1461663367479374,18,-13,7,14,9,12,-5,15
1461663367488334,-2,37,18,7,6,0,1,-15
1461663367488334,-24,30,-23,-16,-13,-1,-2,-21
1461663367501390,4,13,13,3,0,5,1,13
1461663367501390,19,-23,10,-8,-5,3,-5,12
1461663367511342,1,-25,-17,13,10,-4,-2,-12
1461663367511342,-18,-26,-17,-20,-10,6,3,-18
1461663367516400,2,-16,19,-3,-1,6,-1,9
1461663367516400,15,-3,10,12,11,-10,-8,11
1461663367525413,-1,5,12,5,-2,3,1,-10
1461663367525413,-21,8,-13,-4,4,-5,-1,-15
1461663367539371,3,3,-5,0,-1,14,7,14
1461663367539371,13,21,-3,-8,-9,1,-8,5
1461663367555387,-15,-25,-4,1,2,4,5,-8
1461663367555387,-13,-6,3,2,1,-1,-5,-9
1461663367563375,9,3,3,0,-3,-18,-5,10
1461663367563375,8,-18,-7,-5,-1,1,2,6
1461663367564425,-1,-4,-10,1,0,0,2,-9
1461663367564425,-11,21,12,-1,-2,4,-1,-8
1461663367576534,0,12,-14,-1,-4,-3,-2,7
1461663367576534,6,10,5,3,3,-1,0,6
1461663367585499,-3,27,6,-8,-7,-5,-3,-10
1461663367585499,-3,10,-9,-8,0,9,5,-3
1461663367599550,6,7,4,-1,4,-5,-2,5
1461663367599550,-1,-20,-5,-6,-4,6,-4,3
1461663367608497,4,-1,-2,19,4,-2,-1,-4
1461663367608497,-12,-4,13,10,9,5,-3,-11
1461663367623572,1,-11,0,0,1,2,0,4
1461663367623572,9,0,1,-11,-4,-4,-2,4
1461663367624509,-6,-6,1,-8,-6,0,0,-8
1461663367624509,-6,-1,-13,-1,-6,-6,-2,-5
1461663367636518,-5,-7,-8,-4,-4,-11,-7,0
1461663367636518,4,5,-5,1,1,6,1,3
1461663367645539,0,0,-6,-4,-1,25,10,-13
1461663367645539,-6,-11,-6,0,-2,-3,3,-3
1461663367659546,-5,-7,3,2,2,-1,0,18
1461663367659546,-1,-12,-6,3,-2,-9,0,9
1461663367668542,1,-9,-2,-2,2,-4,-3,-11
1461663367668542,-9,-4,5,-5,-3,1,-1,-12
1461663367681612,0,-8,-8,-7,-4,3,-1,7
1461663367681612,2,-6,-6,3,2,-1,-1,6
1461663367690557,0,-4,-2,-12,-4,-6,-4,-9
1461663367690557,-2,-3,13,19,9,5,-1,-8
1461663367696591,-2,-6,-5,-3,-5,-7,1,7
1461663367696591,11,31,21,7,0,2,2,5
1461663367705567,0,-15,-13,-3,-4,-5,0,-10
1461663367705567,-5,2,-5,-4,-4,-1,-2,-6
1461663367728612,-7,-19,6,3,2,2,-1,3
1461663367728612,6,-4,-3,-1,-1,-1,0,4
1461663367729594,1,-5,-2,-6,-5,-5,-2,-8
1461663367729594,0,-4,-11,-7,-3,-1,-1,-3
1461663367743609,5,0,-2,2,2,0,1,6
1461663367743609,-4,1,6,-4,-2,0,-3,-2
1461663367749614,-5,-3,-1,3,2,-6,-2,-6
1461663367749614,-4,0,-7,-4,-2,1,1,0
1461663367756618,2,2,-3,1,-3,-2,1,4
1461663367756618,2,3,3,3,1,-2,-4,-1
1461663367765624,-2,3,2,1,-1,-3,-2,-4
1461663367765624,-6,4,0,-4,0,4,0,-1
1461663367779621,1,7,3,-1,0,-2,-2,4
1461663367779621,4,-3,-3,-4,-2,-2,1,-2
1461663367788637,3,-1,3,2,-2,-3,-2,-3
1461663367788637,-3,2,-4,-4,-5,-1,-3,-3
1461663367802694,-1,4,-1,2,-1,-1,-1,-2
1461663367802694,-2,-8,-6,-3,-3,1,0,-1
1461663367809639,-3,-4,-4,-11,-6,-1,-2,-5
1461663367809639,-6,-2,3,-18,-9,-1,-2,-2
1461663367816703,-1,2,6,29,13,5,-2,2
1461663367816703,2,-10,-7,-2,1,0,0,0
1461663367825682,1,1,3,3,2,0,-1,-4
1461663367825682,-2,6,-3,-5,-2,-3,1,1
1461663367839662,1,-2,-13,-16,-9,-4,-4,-1
1461663367839662,3,0,0,4,1,2,0,1
1461663367848696,0,0,3,-1,0,-2,-2,-4
1461663367848696,-1,-2,7,3,1,0,0,3
1461663367862706,-2,-3,-2,-1,0,-2,0,0
1461663367862706,3,0,-3,0,-1,-2,-1,-1
1461663367869684,2,0,-1,-2,-3,-1,-2,-2
1461663367869684,-5,0,6,2,1,-3,-1,1
1461663367876716,0,2,-6,-4,-4,1,3,1
1461663367876716,-3,-1,-3,-5,1,5,0,-3
1461663367885695,1,6,3,2,3,0,-2,-2
1461663367885695,-4,-10,-5,2,1,-1,-1,1
1461663367899719,1,-1,3,-2,-1,-2,-1,2
1461663367899719,4,-3,-6,-5,-4,-1,0,-1
1461663367914713,-1,-6,-2,1,-2,-4,-1,-4
1461663367914713,-5,-1,0,1,-1,-1,0,0
1461663367922778,0,5,2,-6,-4,-2,3,0
1461663367922778,3,0,5,6,6,0,-1,-1
1461663367929741,-1,-9,-17,-15,-4,0,-1,-2
1461663367929741,-5,-4,-2,-4,-3,-2,-1,4
1461663367945794,-6,-6,2,2,2,0,-2,-1
1461663367945794,2,2,8,-18,-11,-4,-1,-2
1461663367947753,-3,2,7,38,11,3,-1,-3
1461663367947753,-2,2,-3,2,3,1,0,2
1461663367959745,-1,-5,-6,-1,0,1,1,-2
1461663367959745,0,-4,-4,2,-2,-1,1,-3
1461663367968769,0,-2,-5,-15,-8,-1,-4,-4
1461663367968769,0,6,-1,-1,0,3,-1,4
1461663367983795,2,3,4,6,3,-1,-3,0
1461663367983795,1,-4,-5,-3,-3,-5,-3,-5
1461663367989770,-2,-7,0,-5,-5,-3,0,-2
1461663367989770,-10,-8,-2,4,3,-1,-3,0
1461663368005780,-4,8,5,-6,-4,-1,-1,0
1461663368005780,4,-3,-5,1,-1,-1,-1,-3
1461663368008782,2,12,6,2,0,-1,0,-2
1461663368008782,-1,-3,1,2,1,1,-3,2
1461663368019790,-3,-6,-6,-5,-3,-3,-2,-2
1461663368019790,-2,-2,1,3,0,0,-2,-4
1461663368028796,0,3,6,-2,-1,-1,2,0
1461663368028796,-2,-3,-11,-11,-5,-1,-1,1
1461663368042806,-1,0,3,8,6,0,-2,1
1461663368042806,6,4,3,3,0,-1,0,0
1461663368048810,1,-2,1,0,-1,-5,-1,-1
1461663368048810,-2,3,2,-4,-2,-3,1,3
1461663368065838,5,3,-1,-3,-2,3,-1,1
1461663368065838,-5,-11,0,12,7,4,1,-2
1461663368066839,-3,-5,-4,-6,-5,-2,-3,-3
1461663368066839,-3,2,2,1,1,-2,-1,2
1461663368078848,0,-4,-2,-1,-2,-2,-2,1
1461663368078848,3,3,3,-4,-5,-1,0,-4
1461663368087839,2,-4,-2,-2,0,-1,-2,0
1461663368087839,-2,4,-1,5,1,-1,0,1
1461663368101847,2,9,-1,-6,-2,-5,2,-1
1461663368101847,1,-12,0,-3,-1,-1,1,-2
1461663368110865,-6,-2,-2,-4,-3,0,-2,-3
1461663368110865,-1,-1,1,0,0,0,0,3
1461663368125880,1,-2,0,-1,-1,1,0,-1
1461663368125880,1,2,-6,-3,1,-1,-2,-3
1461663368126881,-2,-2,1,-2,1,-3,-1,-3
1461663368126881,-5,-5,-4,-3,-2,-5,-3,2
1461663368138884,-6,-5,-11,-11,-3,-2,-1,-2
1461663368138884,1,3,16,20,6,1,-2,-4
1461663368147892,1,4,-2,10,4,0,-1,0
1461663368147892,-4,-4,0,2,1,-2,0,1
1461663368161906,1,-2,1,0,-2,-1,0,-2
1461663368161906,1,4,-5,-12,-7,-2,1,-4
1461663368170907,-1,1,-1,-10,-4,-3,-2,-3
1461663368170907,-7,0,4,9,3,1,2,1
1461663368185946,-1,-2,-2,-2,-4,0,0,-1
1461663368185946,1,-4,-6,-4,-3,-2,0,-3
1461663368186906,-6,-3,-5,-3,-4,-4,-1,-2
1461663368186906,-2,0,-3,-1,0,1,1,2
1461663368198954,2,0,4,1,0,0,-1,0
1461663368198954,3,5,0,1,1,-1,0,-3
1461663368207921,1,-5,-5,-5,-3,0,-1,-2
1461663368207921,-2,1,-3,-4,-3,-1,-3,1
1461663368221953,2,-3,1,2,-2,-2,-2,0
1461663368221953,-1,-4,-4,-7,-2,-1,-3,-4
1461663368237942,-3,0,3,0,-2,-1,-3,-1
1461663368237942,-5,-5,-2,4,3,0,0,1
1461663368245967,0,0,-2,1,0,-2,-3,3
1461663368245967,5,1,-5,-4,1,-1,0,0
1461663368246971,-8,-3,2,0,1,0,0,-1
1461663368246971,-4,3,2,0,-3,0,-1,-1
1461663368258977,-3,6,5,3,2,2,0,-4
1461663368258977,1,-5,5,6,5,-1,1,-3
1461663368267980,1,-1,2,-2,-4,-3,-1,-2
1461663368267980,-9,0,-6,-4,-5,-1,0,1
1461663368281985,0,-6,-4,-1,0,0,0,0
1461663368281985,3,7,-1,-5,-6,-3,-3,-4
1461663368290991,-1,-2,0,2,1,-1,-1,-2
1461663368290991,-3,-6,-2,-4,-2,1,-3,1
1461663368306054,0,0,-2,-8,-4,0,-2,0
1461663368306054,4,5,-1,1,-1,0,-2,-4
1461663368306992,-1,-4,-2,3,0,-2,-3,-3
1461663368306992,-3,-5,-2,7,6,0,0,3
1461663368319060,-2,-2,0,5,1,-1,1,1
1461663368319060,2,-5,-4,-4,-2,0,2,1
1461663368328022,0,0,-4,-6,-3,0,3,1
1461663368328022,-1,3,4,-2,-2,1,1,5
1461663368342017,3,-2,-2,-5,3,1,1,1
1461663368342017,5,3,6,7,-2,-1,1,-2
1461663368351042,0,3,5,7,4,-2,1,-1
1461663368351042,0,-4,-7,-1,-1,-5,-2,1
1461663368366039,-2,-5,-3,-1,-5,-3,0,-2
1461663368366039,-1,-9,-7,-12,-5,-1,-3,-5
1461663368367034,2,1,-2,1,0,0,-2,-2
1461663368367034,2,2,7,-2,1,2,0,3
1461663368388049,0,1,1,4,1,-2,1,1
1461663368388049,3,1,-3,-4,-2,-3,-2,-1
1461663368390054,1,-2,-1,0,-4,-2,-2,-1
1461663368390054,-5,-5,-5,-3,-2,-1,0,0
1461663368402078,1,0,-1,1,-1,0,1,-1
1461663368402078,2,7,0,1,0,2,0,-5
1461663368411065,-6,-13,-1,-2,-3,-3,-2,-1
1461663368411065,-2,1,-3,-4,-1,-1,0,3
1461663368426091,-2,-3,2,2,-3,-2,1,1
1461663368426091,-2,-4,-2,-1,-1,-3,-4,-3
1461663368427092,0,1,-3,-4,-3,-3,-2,-3
1461663368427092,0,4,0,-7,-1,-2,-1,3
1461663368439084,2,2,0,3,5,1,-1,0
1461663368439084,0,-8,-2,-2,1,-1,-2,-1
1461663368448108,-4,-4,-1,3,-5,-1,-2,-2
1461663368448108,-9,-7,0,3,-5,-3,1,0
1461663368462120,-1,-1,1,3,3,0,-2,-3
1461663368462120,3,4,3,0,0,-4,-2,-2
1461663368471107,0,-2,-7,-8,-1,1,1,0
1461663368471107,-3,1,-2,-4,-2,0,0,2
1461663368486143,3,-5,1,-2,-4,3,-1,1
1461663368486143,-1,7,0,2,-2,0,-1,-2
1461663368488134,-3,-8,-6,-6,-2,0,-3,-2
1461663368488134,2,2,-1,-3,-3,-1,-1,2
1461663368499146,2,0,-3,-1,1,-1,-2,-2
1461663368499146,4,-4,0,0,-2,-1,-1,-2
1461663368508153,-3,-4,-3,-1,-4,-2,0,0
1461663368508153,-4,5,-2,1,5,3,-1,2
1461663368522178,0,-4,-1,0,-3,-1,-1,1
1461663368522178,1,-2,0,4,2,1,1,0
1461663368531181,0,7,1,-2,-2,-3,-4,-2
1461663368531181,0,-2,4,8,2,1,0,2
1461663368545217,-2,-1,-6,-3,-1,-1,-1,-3
1461663368545217,-1,1,2,-2,-3,0,0,-4
1461663368547175,-3,-2,-1,-2,0,-1,0,0
1461663368547175,-2,2,3,-2,0,-1,-1,2
1461663368559169,0,1,2,-1,0,-2,0,-3
1461663368559169,-1,-5,-3,-2,0,2,1,-4
1461663368568192,0,5,0,-2,-1,-1,-2,-4
1461663368568192,-1,3,2,1,0,-4,-3,0
1461663368582241,-8,-15,-1,2,-1,-2,0,0
1461663368582241,4,8,0,2,-1,-2,-2,-3
1461663368591195,0,-4,-3,0,-1,-1,0,1
1461663368591195,-4,-2,-6,-5,-3,-1,0,1
1461663368605231,0,4,2,-2,1,3,1,0
1461663368605231,-4,-11,-4,0,-1,-2,-1,-5
1461663368607235,4,3,0,-3,0,0,-2,-1
1461663368607235,-3,2,1,-1,-2,-1,0,3
1461663368619219,2,7,-3,-8,-2,-4,-1,1
1461663368619219,-10,-19,-8,3,0,2,0,-1
1461663368628248,-3,-2,-4,-2,-3,-1,-1,-2
1461663368628248,-8,-6,-1,-3,-2,-2,-2,-2
1461663368642234,3,6,3,1,-2,-1,-1,-1
1461663368642234,0,4,1,-5,-1,-3,-3,-3
1461663368651256,-5,-2,1,-3,-1,-1,-2,-2
1461663368651256,-1,1,-1,-2,-5,-1,-2,1
1461663368665260,-2,-4,-5,-6,-1,0,1,0
1461663368665260,3,5,2,6,1,-2,0,-2
1461663368667259,-5,-3,-5,3,2,0,0,-3
1461663368667259,-2,1,0,-3,-1,-1,-1,3
1461663368679314,2,4,1,3,-2,-4,-3,-1
1461663368679314,4,-2,-3,-5,-1,0,-2,-2
1461663368688262,-1,3,5,-3,-2,-1,-2,-2
1461663368688262,3,1,-6,-4,-1,-1,-1,1
1461663368702300,-2,-5,2,8,1,-2,-1,-2
1461663368702300,-1,-3,-1,-4,-2,2,-1,-4
1461663368717313,-2,0,-2,3,-1,1,-2,-2
1461663368717313,-3,-2,2,2,1,0,1,2
1461663368725302,3,4,-1,-2,-1,0,1,2
1461663368725302,3,3,-4,-13,-5,-6,-2,-3
1461663368731307,-1,-1,1,7,2,3,0,-2
1461663368731307,-5,-12,0,7,2,0,-1,1
1461663368748304,1,5,4,0,-1,2,-1,0
1461663368748304,0,-4,-3,-1,-1,0,0,-2
1461663368749307,-5,-7,-6,-9,-4,-4,-2,0
1461663368749307,3,6,1,-3,0,-2,-2,1
1461663368761332,0,2,3,2,0,-1,-1,-3
1461663368761332,1,-5,-1,-6,-3,-2,-3,-2
1461663368770333,-2,6,1,6,1,-1,0,-1
1461663368770333,-5,-3,-1,2,1,-1,0,2
1461663368785397,2,-4,-1,-2,2,-2,0,0
1461663368785397,4,0,-6,1,0,0,-2,-4
1461663368800392,-4,-6,-5,-5,-4,-2,-1,-3
1461663368800392,-3,2,2,-2,0,0,-1,2
1461663368800392,4,-1,0,-3,-3,-1,1,1
1461663368800392,-5,-2,0,0,-1,-2,-1,-5
1461663368808376,-4,-5,1,-2,-3,-1,-1,-2
1461663368808376,-1,-1,-2,5,2,2,0,0
1461663368821413,0,-1,-4,-4,-1,0,-1,-1
1461663368821413,1,-5,1,3,0,-2,0,-2
1461663368830424,-5,-4,-7,-5,-2,0,-1,0
1461663368830424,-3,-1,-2,1,-3,-3,0,2
1461663368845435,2,-5,-9,-5,-3,-2,1,-2
1461663368845435,4,5,3,-1,-2,0,1,-3
1461663368851435,-1,-2,-1,-9,-4,-3,-3,-1
1461663368851435,-4,-2,-1,7,3,-1,-2,1
1461663368859383,0,-1,2,3,2,1,-1,1
1461663368859383,-3,-4,-3,-1,-2,-1,1,-4
1461663368868404,2,5,2,-3,0,-2,-1,0
1461663368868404,-2,5,0,-10,-5,-3,-1,1
1461663368881456,0,-5,-4,0,2,0,-3,0
1461663368881456,0,0,0,1,1,3,-2,-4
1461663368890404,-5,-1,-2,0,-4,-2,-1,-1
1461663368890404,5,4,-4,-3,-4,-1,-3,3
1461663368905416,0,-1,2,0,-1,-2,-3,0
1461663368905416,12,18,0,-1,2,2,2,-2
1461663368911448,-17,-22,-9,-5,0,-2,-2,-2
1461663368911448,-4,0,1,0,-4,-1,0,0
1461663368928493,-1,-2,0,-3,1,-1,-1,-1
1461663368928493,0,0,1,3,-2,-4,-5,-4
1461663368929440,2,5,5,8,0,-1,-2,-2
1461663368929440,-1,3,1,-5,0,0,2,2
1461663368942459,-1,-1,-4,-4,-5,-2,-2,0
1461663368942459,2,-4,-8,-5,-1,0,0,-2
1461663368950449,-2,-3,-3,-5,-1,-2,-2,-1
1461663368950449,-5,-10,-3,-2,2,0,0,2
1461663368965471,-1,12,5,0,-4,-3,1,0
1461663368965471,-2,-12,-4,-2,-2,-3,-1,-4
1461663368971520,-6,-4,-5,0,-2,-3,-2,-4
1461663368971520,-2,-2,-1,-3,1,1,-2,1
1461663368988486,3,1,-2,-3,-2,-4,0,0
1461663368988486,1,1,8,3,0,-3,-3,-2
1461663368989484,-5,-4,-3,0,2,0,1,0
1461663368989484,-2,1,-1,-1,0,1,3,1
1461663369001541,-4,-4,-3,0,0,3,0,-1
1461663369001541,4,5,-3,-7,-6,-1,-2,-2
1461663369010503,0,-7,1,3,1,1,0,0
1461663369010503,1,4,4,7,3,0,0,0
1461663369025515,-1,-5,1,3,1,1,-1,-1
1461663369025515,3,10,3,-1,-3,-2,-1,-4
1461663369031561,-1,-1,-12,-22,-6,-5,-2,-1
1461663369031561,-5,-4,-2,8,-3,-2,-1,2
1461663369048535,1,5,0,1,1,1,-1,-2
1461663369048535,0,-6,-3,-3,-3,-1,-1,-2
1461663369049517,2,2,4,3,2,0,-2,1
1461663369049517,-7,-5,-14,-15,-4,-3,-3,1
1461663369061536,-1,-8,0,-2,0,-2,0,-4
1461663369061536,-4,-1,2,-1,-2,-1,-2,-4
1461663369070537,2,10,-3,5,1,-1,-2,1
1461663369070537,-1,-2,-8,-2,0,-1,-1,-1
1461663369084558,1,-6,-3,3,-5,0,-1,0
1461663369084558,-9,-14,-5,-11,0,-3,-4,-7
1461663369091546,2,9,-13,-5,0,0,-1,2
1461663369091546,-3,21,53,38,11,3,-1,-3
1461663369108570,5,1,7,4,2,2,1,-2
1461663369108570,10,1,-8,5,1,0,0,-1
1461663369109558,-4,-7,-5,-9,-7,-3,-2,4
1461663369109558,-2,-9,-27,-18,-9,-5,-4,0
1461663369121579,4,0,-3,-3,-1,2,1,2
1461663369121579,4,1,-1,3,0,-1,-6,-2
1461663369130586,0,1,-2,5,3,-1,1,0
1461663369130586,5,0,-4,-8,-4,4,16,6
1461663369144595,-7,1,14,-6,-3,-7,-18,-5
1461663369144595,-1,-2,-11,-6,-7,-3,2,1
1461663369151601,1,-3,-1,2,3,3,6,4
1461663369151601,-2,10,3,-24,-10,1,3,2
1461663369167638,9,1,2,45,18,6,-15,-4
1461663369167638,-12,-20,4,-25,-9,-11,-11,-8
1461663369169604,-9,-4,3,31,3,-5,-15,-5
1461663369169604,-5,6,-8,-1,-1,-1,3,3
1461663369181649,1,-15,-24,-58,-20,-3,8,-1
1461663369181649,3,4,24,47,18,7,1,-2
1461663369190677,5,3,16,10,3,4,12,0
1461663369190677,-2,3,8,8,2,1,-5,-6
1461663369204687,-1,6,-8,3,-5,-1,6,-2
1461663369204687,2,-5,-13,-31,-13,-4,-3,2
1461663369211706,9,17,9,-13,-7,-1,6,8
1461663369211706,-10,-31,-31,6,5,-1,-8,-5
1461663369227762,-1,10,1,-11,-4,4,28,-2
1461663369227762,-1,-13,-6,1,3,11,-3,1
1461663369229707,1,11,2,-3,-4,-6,-6,0
1461663369229707,-9,-4,11,6,-1,-14,-36,-5
1461663369241726,-7,-5,-11,-15,-8,-21,-25,-11
1461663369241726,0,6,18,10,0,-6,10,0
1461663369250737,-11,-9,-20,-27,-8,11,10,5
1461663369250737,4,-23,-9,-30,-14,5,10,-1
1461663369264760,-8,18,-1,35,15,2,5,2
1461663369264760,-1,-4,5,2,-6,2,13,0
1461663369273738,11,-3,-3,-2,9,2,-7,5
1461663369273738,3,7,17,16,6,-10,-12,1
1461663369287777,-14,-37,-1,24,15,11,0,-18
1461663369287777,-1,27,6,5,2,0,-3,-9
1461663369289780,-10,-6,3,26,17,4,-9,-7
1461663369289780,16,35,11,-11,-13,-11,-6,9
1461663369301787,6,-12,-10,-16,-7,-15,-10,1
1461663369301787,-18,-10,-3,-8,-8,0,-1,-26
1461663369310794,6,-26,-19,-20,-7,20,62,28
1461663369310794,0,16,-9,-11,-8,-6,-33,27
1461663369323787,-7,10,11,-32,-20,-16,-9,-3
1461663369323787,5,-19,-28,19,-4,0,-14,-1
1461663369333847,-5,21,15,23,18,-13,-33,-30
1461663369333847,-15,-27,6,-49,-16,11,25,-8
1461663369347791,37,60,55,76,46,21,44,13
1461663369347791,-25,-35,-27,-102,-62,-25,-20,0
1461663369355794,-11,-6,-7,108,69,4,-16,1
1461663369355794,-7,0,20,28,16,10,-7,-9
1461663369361814,-20,7,-22,-47,-3,7,-21,-20
1461663369361814,44,60,44,54,35,39,97,18
1461663369384874,44,31,16,-38,-21,15,14,26
1461663369384874,3,1,-11,2,-16,-24,16,14
1461663369385816,-51,-94,-21,-29,-31,-6,-39,-17
1461663369385816,-5,56,-20,50,33,-13,-40,-19
1461663369392836,-26,57,-4,-32,-48,-26,-28,-21
1461663369392836,24,23,-11,8,8,15,57,14
1461663369407847,-10,74,8,-96,-62,-30,-86,-2
1461663369407847,19,92,-40,48,55,-3,-22,-13
1461663369409848,-34,-74,14,-59,-29,-7,9,-3
1461663369409848,63,51,75,21,17,8,63,33
1461663369421900,-34,-128,-24,46,-17,-6,-31,-4
1461663369421900,-7,-61,-24,9,8,17,20,-13
1461663369430864,25,-45,-36,-20,13,21,14,8
1461663369430864,15,-51,11,-74,0,2,22,6
1461663369443872,5,89,20,93,59,16,-37,2
1461663369443872,-33,69,-5,-61,-45,-49,-23,-16
1461663369452895,10,86,2,30,16,-9,7,4
1461663369452895,-40,6,-17,8,-5,5,-3,-12
1461663369468890,49,34,12,0,-13,-23,-3,8
1461663369468890,8,-25,-26,-32,-4,1,-37,-13
1461663369469877,-51,-32,12,-44,-48,-6,4,-5
1461663369469877,19,-20,-12,103,70,20,-5,2
1461663369481899,-5,20,-35,-84,-27,-3,24,-5
1461663369481899,8,-62,5,51,12,9,53,10
1461663369490890,13,-44,33,-11,-25,-8,-8,26
1461663369490890,-49,1,-37,-32,-22,-14,-113,-50
1461663369503913,11,14,-34,18,15,8,45,-16
1461663369503913,-6,-50,56,53,31,7,25,35
1461663369513922,16,-10,-64,-53,-31,-20,-17,-3
1461663369513922,-24,31,29,50,-10,8,9,-4
1461663369527916,43,3,13,41,52,25,10,9
1461663369527916,-47,-25,-2,-109,-81,-30,-62,-24
1461663369529950,-2,5,15,40,44,48,97,5
1461663369529950,-16,11,-8,-51,-34,-31,-111,-19
1461663369541939,53,-1,33,64,15,-48,-29,1
1461663369541939,49,-4,28,-44,-7,5,20,12
1461663369550934,12,2,6,-80,-21,1,40,13
1461663369550934,37,-19,-26,38,24,36,80,45
1461663369563998,-78,4,-33,-8,-7,9,-22,-39
1461663369563998,39,-2,-10,26,-6,-28,2,24
1461663369573949,8,-4,11,-11,-19,-20,-66,-9
1461663369573949,-67,0,-32,-37,-40,-26,-20,-41
1461663369587972,11,5,15,34,41,43,60,22
1461663369587972,62,-22,18,-88,-28,1,-9,9
1461663369589972,-36,-7,6,119,42,12,-19,-25
1461663369589972,10,10,-19,-17,7,-7,34,9
1461663369602027,-7,2,-39,-128,-110,-22,40,-7
1461663369602027,-37,-21,41,127,120,79,46,21
1461663369610976,2,0,-22,-46,-34,-47,-80,-2
1461663369610976,-30,5,5,6,6,-22,-27,-41
1461663369625043,-37,2,8,-94,-5,40,-4,1
1461663369625043,27,-18,33,39,22,-40,-19,-19
1461663369632048,-28,9,4,-26,-19,-14,42,33
1461663369632048,8,4,-41,-48,13,47,62,12
1461663369648017,-20,8,-12,38,27,-3,-70,-15
1461663369648017,35,-15,-11,-84,-50,-21,-36,-23
1461663369654019,12,6,-16,-43,0,-10,-33,-5
1461663369654019,-59,12,-92,-102,-77,-22,62,-8
1461663369662010,-23,4,45,68,84,73,74,14
1461663369662010,35,-23,-27,35,-9,-11,-58,6
1461663369671018,-51,2,18,28,35,-13,-12,-46
1461663369671018,53,14,44,-112,-57,19,55,19
1461663369684089,11,10,-34,24,17,12,104,43
1461663369684089,36,-24,8,8,-17,-26,-112,9
1461663369693062,-54,-9,77,27,5,-14,5,-20
1461663369693062,-35,5,-7,26,17,0,20,-5
1461663369708045,-2,9,49,-49,-28,-2,-66,-15
1461663369708045,62,-20,-8,-37,-18,-44,-9,31
1461663369715066,113,-12,-36,-9,-1,1,-2,52
1461663369715066,-71,8,34,18,-20,-10,-27,-48
1461663369722053,-24,0,-15,43,9,21,-35,-11
1461663369722053,15,-12,-74,-89,-46,-36,23,16
1461663369731078,44,0,-15,1,-42,10,-53,7
1461663369731078,33,10,15,76,39,-53,-40,-39
1461663369744081,1,-1,49,-80,-34,-10,25,-23
1461663369744081,-23,-9,-49,0,37,47,71,23
1461663369753091,-11,9,-31,-41,-2,11,-6,-8
1461663369753091,29,-7,65,-66,4,35,9,26
1461663369767143,-103,9,-61,64,41,-37,-17,-29
1461663369767143,8,-6,12,-25,-23,17,28,10
1461663369776105,-30,-12,-16,-74,-23,59,67,37
1461663369776105,-55,0,-54,127,44,-58,-110,-71
1461663369782154,114,16,61,8,-24,-61,-38,9
1461663369782154,47,-14,42,-90,-69,27,38,69
1461663369791102,-25,6,-26,127,126,20,60,48
1461663369791102,-73,8,25,-28,11,28,-28,-56
1461663369804113,96,-3,13,-29,-42,-52,-115,-43
1461663369804113,-18,-18,-24,-58,8,3,41,25
1461663369813119,21,-8,11,-80,-62,5,-35,-46
1461663369813119,-51,7,-19,-20,-1,35,52,21
1461663369827198,-38,4,-4,49,-21,-40,71,6
1461663369827198,30,-9,-65,-62,-7,45,-2,-19
1461663369834193,-37,0,55,48,53,-23,-84,-26
1461663369834193,45,6,49,3,34,-25,-20,35
1461663369858167,-91,-2,-18,-7,4,30,34,-2
1461663369858167,-13,-8,-9,-33,-51,-17,13,-11
1461663369860167,8,6,0,28,-1,-2,-21,-15
1461663369860167,14,-2,-8,-1,-5,10,21,-22
1461663369864170,-43,2,21,-44,1,35,42,17
1461663369864170,-15,-5,33,30,6,-11,15,4
1461663369873160,-59,13,-64,14,-17,-29,-70,-2
1461663369873160,-3,5,-35,-68,-59,-37,-77,23
1461663369887190,21,-7,43,-58,23,18,-32,2
1461663369887190,-8,-13,-45,75,48,-17,-46,-31
1461663369894206,23,-2,46,61,27,15,50,-4
1461663369894206,-3,4,-11,-90,-104,-16,3,6
1461663369911217,-79,2,-36,55,31,24,37,3
1461663369911217,25,-5,-5,-110,-84,-18,-24,9
1461663369913219,4,5,0,86,82,9,30,6
1461663369913219,-31,5,32,-18,8,19,30,-3
1461663369924213,-24,-1,13,5,10,-2,-25,-5
1461663369924213,-13,-2,73,67,27,-15,-3,12
1461663369933220,70,10,-42,-128,-85,-9,47,11
1461663369933220,-12,-12,-31,29,24,17,-17,-33
1461663369947212,127,-4,-20,-8,9,22,53,-15
1461663369947212,-6,-4,10,7,-20,-8,-81,7
1461663369954220,-36,-10,-15,-22,-29,-59,-91,-4
1461663369954220,-24,6,10,-2,25,-1,11,13
1461663369971244,-44,-12,17,-63,-41,13,70,18
1461663369971244,8,-1,-43,42,72,47,6,-20
1461663369973232,-59,-5,11,17,9,-24,9,-10
1461663369973232,-22,-7,55,111,32,24,14,-3
1461663369993260,21,-4,-37,-105,-62,-11,-54,-24
1461663369993260,24,0,43,127,74,6,18,10
1461663369995262,-11,15,10,-3,15,41,54,29
1461663369995262,-31,-3,-48,-49,-16,-13,-37,-26
1461663370007257,115,-10,-41,-1,-51,-54,-96,3
1461663370007257,-9,2,8,-30,-4,-2,47,0
1461663370014319,119,-10,26,-22,-13,8,8,2
1461663370014319,13,-8,20,13,9,-1,27,0
1461663370030272,-59,-7,5,-16,-1,28,86,27
1461663370030272,23,-10,-40,-40,-37,-37,-98,5
1461663370032272,-49,-7,-7,-18,-23,-33,-24,3
1461663370032272,5,0,-25,-86,-53,-6,5,1
1461663370044297,-11,-3,4,103,80,18,6,-19
1461663370044297,-12,-4,3,8,16,12,30,1
1461663370053290,-67,13,-20,-123,-65,6,6,-21
1461663370053290,18,0,49,88,114,35,-12,-6
1461663370067300,46,-1,28,-51,10,-6,3,21
1461663370067300,-20,1,12,19,5,11,29,76
1461663370074361,45,5,-7,-7,1,11,-9,56
1461663370074361,23,0,-28,-4,-28,-5,81,-8
1461663370090316,18,-4,-21,4,-11,11,-82,-108
1461663370090316,-97,-15,38,1,-9,-30,-72,-109
1461663370092317,-73,-2,-2,-27,-31,-40,-28,-91
1461663370092317,13,6,3,28,5,-17,30,8
1461663370104325,-29,-7,4,7,12,24,9,-1
1461663370104325,42,-4,-35,-52,-47,-41,1,-33
1461663370113342,-42,7,15,19,14,52,67,-16
1461663370113342,103,-13,-19,-77,-23,10,-57,-8
1461663370127351,-88,15,18,54,22,-13,1,21
1461663370127351,1,-11,15,23,45,46,7,-14
1461663370134356,43,15,43,64,56,-5,23,12
1461663370134356,-23,-1,-17,12,11,7,12,7
1461663370150369,38,-1,-29,-121,-121,-44,-14,14
1461663370150369,-4,1,5,60,72,35,26,13
1461663370152370,27,-1,2,-1,16,5,-7,4
1461663370152370,-13,7,6,-25,-16,-6,-18,1
1461663370164367,-2,-9,-10,-30,-26,-28,-6,16
1461663370164367,-16,-1,6,-24,-46,-5,12,-18
1461663370173435,-25,5,-32,-35,-24,5,24,13
1461663370173435,-49,4,-6,6,-7,0,-48,8
1461663370187446,4,1,0,11,13,-39,-49,-23
1461663370187446,24,-5,8,-9,-3,24,24,21
1461663370194450,-53,-4,-1,-10,-23,-90,-41,-10
1461663370194450,-38,-1,7,18,7,35,-24,-11
1461663370210516,22,-3,-5,26,31,57,46,16
1461663370210516,44,8,5,-26,-12,21,24,14
1461663370212495,17,1,-40,-109,-57,0,-7,-4
1461663370212495,-42,-4,31,81,64,-25,2,-8
1461663370224529,15,-7,39,33,47,-15,15,5
1461663370224529,3,7,-15,-42,4,1,-6,-1
1461663370233480,2,0,-23,66,32,10,3,1
1461663370233480,-10,-5,4,-22,-18,-11,-4,-4
1461663370247545,3,-6,-20,-9,-26,6,2,5
1461663370247545,-19,-4,-3,-11,-20,-16,-4,3
1461663370254493,18,-31,18,-13,-11,3,-24,-9
1461663370254493,36,-128,3,-8,-6,-8,-14,-17
1461663370270505,-40,-34,-15,10,0,-2,31,38
1461663370270505,-56,38,-27,-18,-32,-46,9,-5
1461663370272506,68,109,20,6,18,58,-17,10
1461663370272506,-3,127,-15,-12,-8,-2,-20,-8
1461663370284529,4,44,-14,-2,-10,-47,-24,-12
1461663370284529,0,54,2,14,-9,30,-9,-4
1461663370293522,11,-7,19,-20,-10,14,24,0
1461663370293522,16,-32,4,19,-2,2,44,11
1461663370307531,11,-55,17,-70,26,14,-5,4
1461663370307531,-2,27,38,27,43,-14,1,-3
1461663370314592,-2,-28,21,67,45,19,5,-7
1461663370314592,-5,-31,-70,-61,-25,-17,-5,2
1461663370330560,4,-34,-25,67,10,-8,24,21
1461663370330560,-20,11,-25,-20,-34,3,-26,-22
1461663370332605,-19,-50,59,-42,-37,-4,-15,-13
1461663370332605,-6,-11,40,-5,-17,-10,-14,-2
1461663370344567,10,60,-37,-17,-18,-24,6,8
1461663370344567,-11,71,-20,-10,4,17,0,-4
1461663370353562,-12,-18,-24,3,0,-21,-37,-6
1461663370353562,18,-109,-11,-6,5,8,23,7
1461663370367631,3,-126,30,8,9,76,22,4
1461663370367631,-47,-128,-9,7,-1,-34,-6,-15
1461663370374641,-23,-115,-17,-10,4,-18,4,0
1461663370374641,32,-36,-1,6,1,-2,-7,24
1461663370390617,13,14,35,-1,-5,-12,-1,-6
1461663370390617,-49,73,-5,2,-5,18,8,-27
1461663370392619,-13,61,-14,3,0,3,5,11
1461663370392619,44,36,18,11,12,16,21,46
1461663370413635,22,49,-5,12,0,-9,-4,-20
1461663370413635,-30,74,42,2,-4,-8,-4,-59
1461663370414634,-11,54,58,11,2,-12,4,2
1461663370414634,35,74,-86,-9,2,2,-3,41
1461663370428623,7,27,-51,-25,-23,-1,-8,-11
1461663370428623,-30,44,10,6,-1,4,-2,-40
1461663370434634,-2,24,27,7,16,5,4,5
1461663370434634,19,23,59,18,11,2,-7,33
1461663370450630,10,15,30,-1,-3,-11,-14,-1
1461663370450630,-27,1,-39,-12,-6,0,7,-29
1461663370452647,-14,-2,-28,1,-7,5,-5,3
1461663370452647,16,30,16,-4,-5,-10,-4,22
1461663370464642,8,-1,-13,-6,-6,-3,3,3
1461663370464642,-16,-22,-7,-7,-2,-4,-9,-32
1461663370473650,-5,-11,-12,-8,-4,-11,-4,8
1461663370473650,15,-8,-1,0,5,25,5,21
1461663370487659,-4,-37,5,2,0,-2,-5,-11
1461663370487659,-8,8,18,7,4,3,1,-9
1461663370494664,-10,-15,-30,-3,1,2,5,6
1461663370494664,9,-11,-2,-12,-9,-8,0,13
1461663370510688,8,4,6,2,-2,-6,2,-1
1461663370510688,-12,-4,-14,1,7,0,-4,-12
1461663370512690,0,-13,-1,3,1,1,1,5
1461663370512690,5,-2,26,2,-5,-18,-8,5
1461663370524741,4,-7,-12,6,3,12,-5,-4
1461663370524741,-18,-11,-15,-6,1,1,0,-9
1461663370533723,-3,12,21,4,-2,3,3,-1
1461663370533723,5,-2,-26,0,-2,-9,-5,4
1461663370547700,7,16,33,7,0,-9,-5,-4
1461663370547700,-8,1,-21,-11,-6,2,-3,-10
1461663370554716,-4,-3,-23,2,2,4,4,5
1461663370554716,4,-2,2,0,-4,-5,1,3
1461663370570731,5,1,13,3,2,-4,0,-5
