timestamp,emg1,emg2,emg3,emg4,emg5,emg6,emg7,emg8
1461663441221576,1,0,-2,-4,-3,-1,-1,-1
1461663441221576,2,0,0,-6,-2,-1,-1,4
1461663441236679,0,5,2,-1,-3,-2,-3,0
1461663441236679,-1,-4,-2,0,-2,-1,-2,-4
1461663441244686,1,0,-1,7,3,0,0,1
1461663441244686,-8,-12,-5,-4,-1,2,1,3
1461663441259709,-3,3,2,4,-2,0,-2,-4
1461663441259709,-6,-4,-4,-11,-5,-3,-3,-3
1461663441260696,-1,-2,-3,-4,-4,-2,0,-1
1461663441260696,2,-1,0,5,2,0,2,-1
1461663441274006,-1,-2,-3,-4,-1,-2,-2,-1
1461663441274006,-2,0,0,-1,0,-2,-1,-4
1461663441282012,2,2,-1,-5,-3,0,0,1
1461663441282012,2,3,1,0,1,-2,-5,2
1461663441296524,0,3,0,2,-1,-4,-2,-4
1461663441296524,-2,-3,-1,0,0,0,-1,-1
1461663441304526,-1,-3,-1,-3,-1,0,0,0
1461663441304526,-3,-1,0,-2,-1,0,-2,-1
1461663441319537,0,-1,0,-1,-2,0,-2,-1
1461663441319537,-1,2,0,5,1,0,2,-1
1461663441320539,-4,-3,-2,-1,-3,0,-1,1
1461663441320539,1,-3,-1,4,0,-1,0,1
1461663441334047,-3,-3,-2,-7,-3,-1,-3,-2
1461663441334047,2,1,2,1,0,0,0,-2
1461663441342616,-7,-12,-4,0,4,-1,1,0
1461663441342616,-1,1,1,2,-1,-2,0,0
1461663441356575,2,-1,-1,-1,-2,-2,-1,-3
1461663441356575,0,3,0,-3,3,1,-1,-1
1461663441364598,0,0,-1,-3,-2,-1,-1,-2
1461663441364598,-2,0,0,0,0,-1,0,0
1461663441388098,1,-3,-4,-1,0,-2,-1,-2
1461663441388098,-2,-5,-2,-2,0,-1,-2,-1
1461663441388599,2,1,-1,1,-1,1,1,1
1461663441388599,-1,-2,0,0,-2,-2,-4,-3
1461663441394148,-1,0,-1,-1,-1,0,1,-2
1461663441394148,1,1,1,0,-1,-3,-1,0
1461663441402109,2,4,-2,-2,-1,-1,0,-2
1461663441402109,-7,-16,-4,-5,-2,0,1,-1
1461663441416665,-5,-1,-4,0,-4,-1,-3,-3
1461663441416665,1,1,0,4,1,-2,-1,0
1461663441424670,-7,0,3,0,-1,-1,-1,0
1461663441424670,0,6,-4,-6,-3,-2,-1,0
1461663441448151,-4,-9,-2,-2,0,0,-1,-2
1461663441448151,-1,1,-3,-4,-2,-2,0,0
1461663441448633,-1,-10,-5,-5,-5,-3,-3,1
1461663441448633,2,5,4,9,3,1,1,-3
1461663441454153,-2,0,-1,-3,-1,0,-1,0
1461663441454153,-1,-1,2,4,1,1,1,-1
1461663441462144,-4,-4,-4,-3,-3,-2,-1,-2
1461663441462144,-2,2,0,-8,-2,0,-1,-2
1461663441476836,0,5,-1,2,0,-2,1,-2
1461663441476836,2,1,1,2,2,0,-2,0
1461663441484822,-1,4,1,0,0,0,1,1
1461663441484822,3,-3,-1,0,-1,0,1,-1
1461663441499832,-1,0,1,-1,-1,0,-2,-2
1461663441499832,-2,-8,-6,-9,-5,-1,0,-1
1461663441500833,0,3,-1,2,0,0,-2,0
1461663441500833,2,5,-1,0,2,0,0,0
1461663441513854,-3,-11,-4,-1,-2,-1,-2,0
1461663441513854,0,-1,-2,-1,-2,-2,-3,-3
1461663441521886,1,0,3,0,1,-1,0,1
1461663441521886,1,-1,-5,-4,-4,-2,-2,-1
1461663441535852,4,5,2,3,1,-1,0,0
1461663441535852,-1,0,-3,-1,-2,-2,-2,1
1461663441544902,-1,-3,-1,-1,-1,-1,0,-2
1461663441544902,1,0,-3,-7,-1,-2,0,1
1461663441559921,-3,-4,-3,2,0,-1,-1,-2
1461663441559921,-1,2,3,1,2,1,2,0
1461663441559921,4,6,1,3,2,0,2,-1
1461663441559921,-1,-10,1,1,-3,-5,-6,-2
1461663441573928,-2,3,-2,-2,-1,-1,-2,-1
1461663441573928,0,1,-3,-3,0,-1,-2,-1
1461663441581882,-6,-11,-3,-2,-2,-1,-1,-2
1461663441581882,2,8,4,-2,-2,0,2,-1
1461663441596910,-1,-4,1,12,8,0,1,-1
1461663441596910,0,4,0,-2,-3,-1,-1,-1
1461663441604916,0,-2,-1,-5,-2,-2,-2,0
1461663441604916,-5,-11,-12,1,-2,0,1,-1
1461663441619928,-1,1,-1,-6,-4,-3,-1,-3
1461663441619928,1,-3,-4,-5,-2,-1,-1,0
1461663441619928,2,7,10,10,6,1,5,-1
1461663441619928,-2,-6,-9,-2,-1,-3,-2,-2
1461663441633926,0,5,3,-6,-3,-4,-5,-2
1461663441633926,1,6,4,3,3,0,0,2
1461663441641914,-3,-19,-8,-3,-5,-3,-5,-3
1461663441641914,-4,1,2,-3,1,0,1,-1
1461663441656926,-4,-9,-3,2,-4,-1,3,-3
1461663441656926,-2,0,-3,-8,-4,-2,1,2
1461663441664932,1,6,0,-10,-1,-1,-14,1
1461663441664932,1,6,8,10,3,0,-2,-1
1461663441678968,4,2,-2,-4,0,-1,-3,-5
1461663441678968,-5,-6,1,2,-1,-1,5,-1
1461663441687947,-3,-3,-6,-8,-5,-3,1,2
1461663441687947,1,2,1,0,-1,1,-4,1
1461663441702959,-4,-8,-1,-1,0,0,1,-4
1461663441702959,-1,-3,-3,-2,-4,-1,-2,-1
1461663441703959,0,0,3,7,5,0,3,1
1461663441703959,2,9,4,-3,-1,0,0,-2
1461663441715996,2,-3,-6,-5,-3,-1,-1,-3
1461663441715996,-6,-13,-4,1,0,-1,-2,-1
1461663441731039,1,7,-1,-1,-2,0,2,2
1461663441731039,-4,-3,3,2,-1,0,0,-2
1461663441739011,-2,2,-5,-11,-4,0,1,-2
1461663441739011,-1,-5,-2,3,3,-1,-3,-2
1461663441748018,0,3,-1,-3,1,0,3,1
1461663441748018,-1,2,-1,-1,2,-2,2,1
1461663441753999,0,3,9,8,-1,-1,-2,-3
1461663441753999,-4,-10,-15,-10,-3,-3,-2,0
1461663441764000,2,-1,4,10,3,0,0,-1
1461663441764000,-1,-4,-3,-7,-2,0,1,-1
1461663441776022,-3,-4,-5,-7,-5,-4,-5,-4
1461663441776022,-4,-1,3,3,0,1,-1,1
1461663441785017,-1,3,-1,-1,-1,0,1,1
1461663441785017,1,-7,-4,4,1,-2,-1,-2
1461663441799024,-2,3,3,0,-1,-1,-2,-2
1461663441799024,-1,2,2,-3,0,-1,0,1
1461663441816039,3,8,0,3,-4,-3,-2,2
1461663441816039,3,8,5,-5,-1,1,0,-2
1461663441817053,-10,-25,-12,3,-1,0,0,-2
1461663441817053,1,0,-3,-7,-2,0,-3,1
1461663441823056,-5,-5,-2,4,4,-2,-2,1
1461663441823056,1,0,2,-2,0,-1,-1,-1
1461663441836065,5,10,5,7,1,-1,-1,-4
1461663441836065,1,3,1,-2,-3,1,0,-1
1461663441846057,1,-1,-1,-6,-4,-1,0,3
1461663441846057,-5,0,2,1,-1,-1,2,1
1461663441859083,-1,-2,1,-2,-1,-1,-4,-5
1461663441859083,2,3,0,1,1,-1,9,0
1461663441868077,-5,-7,-3,-8,-8,-3,-9,-1
1461663441868077,2,-1,0,6,2,0,-4,-1
1461663441874109,1,-5,-9,-7,-1,2,0,-2
1461663441874109,-3,-3,1,2,-1,-3,-3,-5
1461663441883101,-5,1,4,4,3,0,4,3
1461663441883101,-1,-4,-4,0,-2,-1,-1,1
1461663441896152,0,1,3,-1,-2,-1,0,-5
1461663441896152,-2,-10,-5,0,-2,-1,-4,-1
1461663441905099,-2,5,2,-2,-2,0,0,3
1461663441905099,-3,-11,-7,4,4,0,-2,0
1461663441919168,3,0,4,-5,-1,-3,0,-3
1461663441919168,-6,-5,-4,-9,-4,-2,0,-2
1461663441928116,-2,-2,3,13,-1,-3,-6,0
1461663441928116,1,-6,-1,0,4,2,0,0
1461663441934135,-3,5,4,0,-2,-2,-2,-6
1461663441934135,-1,-14,-16,-3,-1,1,-3,-2
1461663441943141,-4,-4,-6,-10,0,-1,4,2
1461663441943141,1,3,-1,-4,-4,-2,2,0
1461663441957174,1,4,2,-2,-1,0,-1,-1
1461663441957174,-3,7,10,1,-3,-2,-3,0
1461663441965146,1,-1,-2,-2,-1,1,2,-1
1461663441965146,-1,0,2,6,0,-1,-2,0
1461663441979153,0,4,1,-6,-3,2,11,0
1461663441979153,2,7,4,4,0,-1,-11,0
1461663441988159,-1,-5,-9,-9,-4,-2,-4,-3
1461663441988159,-4,-5,4,-1,-3,-2,-1,-4
1461663442002197,3,6,-5,-1,2,2,1,0
1461663442002197,-2,-6,2,14,6,-2,0,1
1461663442009201,3,6,3,4,5,0,1,2
1461663442009201,-2,-2,-5,-2,-2,-2,-1,-2
1461663442016193,-2,-3,-10,-7,-3,-2,0,-2
1461663442016193,3,4,-2,-11,-6,0,7,1
1461663442025199,3,1,6,3,0,0,-2,0
1461663442025199,-3,-1,3,2,5,-1,-7,-4
1461663442039233,-2,0,-10,-1,-1,-1,0,-3
1461663442039233,4,2,1,12,12,2,3,4
1461663442048215,-3,-3,-4,0,-3,-2,0,0
1461663442048215,-1,4,1,-10,-8,-1,-1,-1
1461663442062249,-4,-3,-1,-8,-5,-4,-5,-4
1461663442062249,-5,-9,-6,-3,-1,1,0,-1
1461663442064213,-2,0,3,3,-1,1,2,2
1461663442064213,0,4,-2,1,2,0,0,-2
1461663442085241,-6,-9,-4,-8,-7,-2,-4,-4
1461663442085241,-2,8,5,-3,-4,-3,7,5
1461663442087231,2,-4,-3,-12,-5,-3,-17,-2
1461663442087231,-4,-10,-12,4,1,-2,-6,-4
1461663442099254,-3,-3,-1,-10,-4,-2,-6,-3
1461663442099254,-1,-7,1,19,4,0,-2,-2
1461663442108258,-1,10,9,-3,3,0,6,0
1461663442108258,2,5,4,-1,-4,-3,2,0
1461663442122313,-1,-8,-3,7,2,-1,-1,0
1461663442122313,6,3,-4,-9,-5,-1,0,1
1461663442124254,-1,-6,-5,-6,-6,-2,1,-1
1461663442124254,1,4,-2,-10,-7,-1,-2,-1
1461663442136291,-2,-5,1,7,9,2,1,-1
1461663442136291,0,3,-1,6,3,1,0,2
1461663442145273,8,6,-4,-1,-1,-5,-5,1
1461663442145273,0,-2,0,-5,-3,-3,-4,-3
1461663442159308,-5,-1,-1,-10,-6,-1,9,2
1461663442159308,-8,-4,5,10,9,5,-4,0
1461663442168305,-2,-10,-4,-2,4,7,8,-2
1461663442168305,6,6,6,-1,-7,-2,-13,-3
1461663442182296,0,-1,-1,15,6,-2,-14,-6
1461663442182296,2,6,-4,-21,-14,-8,7,3
1461663442184299,5,0,-3,16,7,-3,-11,0
1461663442184299,-3,1,2,-6,-4,-5,1,-4
1461663442196306,-4,-10,-3,5,4,0,-4,-1
1461663442196306,-4,-2,-5,-12,-4,-2,-6,0
1461663442205312,1,4,-1,-7,-11,-4,3,-1
1461663442205312,1,1,6,15,12,5,7,1
1461663442218332,3,5,-4,-6,-1,1,4,1
1461663442218332,-1,-4,3,10,7,2,0,1
1461663442228326,-4,1,-7,-2,-2,0,10,0
1461663442228326,1,-3,-6,-19,-4,1,8,1
1461663442242337,-8,-20,-4,-2,-7,-4,-9,-6
1461663442242337,3,5,1,8,2,-2,-8,-1
1461663442244338,0,4,-2,-6,-3,0,-4,-2
1461663442244338,0,-3,-7,-12,-6,1,18,2
1461663442256348,7,5,5,6,2,-1,1,5
1461663442256348,-11,-12,-2,-8,-6,-3,-30,-8
1461663442265353,-15,-8,3,-1,-6,-7,-2,-9
1461663442265353,-1,12,-4,11,9,8,8,-7
1461663442278362,10,0,-1,0,-3,-1,8,5
1461663442278362,-2,-1,-9,-24,-9,-9,-12,12
1461663442287369,4,16,13,46,12,-7,-27,-1
1461663442287369,-6,-8,18,-5,-17,-11,1,-8
1461663442310386,2,11,-20,-3,6,6,2,-1
1461663442310386,-13,-5,-9,-7,7,5,24,0
1461663442311388,-7,-11,-6,-7,0,12,34,10
1461663442311388,13,2,-20,-29,-14,-2,-24,-4
1461663442316390,-16,-14,8,49,17,-7,-24,-15
1461663442316390,9,17,11,-25,-4,-1,-12,3
1461663442325396,-15,-16,5,-6,-1,-2,10,-2
1461663442325396,-4,25,10,26,12,6,27,-1
1461663442338406,4,-14,-19,-10,1,1,-16,-1
1461663442338406,-2,20,5,11,0,-1,-2,2
1461663442347415,-11,-29,-12,-9,2,3,-8,3
1461663442347415,4,6,-6,-31,-22,-13,-25,-14
1461663442361425,16,23,14,-3,1,9,6,-7
1461663442361425,-3,9,12,25,8,5,12,2
1461663442370428,0,8,-5,-13,-14,-14,-10,8
1461663442370428,0,-11,-5,-9,-3,-11,-22,16
1461663442376434,3,13,3,-23,-32,-18,-37,-19
1461663442376434,21,6,-6,-1,17,14,10,7
1461663442393445,6,11,4,-9,7,3,14,-4
1461663442393445,-25,-20,19,51,13,-14,-21,-7
1461663442399450,-30,-15,-19,-1,-11,6,73,6
1461663442399450,6,14,1,-37,-16,13,-15,12
1461663442407474,24,-8,-10,11,-4,-4,-39,-12
1461663442407474,-2,-5,30,40,7,-14,-41,-19
1461663442421483,3,-1,-35,-49,-12,-8,-14,-5
1461663442421483,2,5,32,18,7,21,60,18
1461663442430473,-12,23,-13,20,22,16,26,10
1461663442430473,10,-6,8,50,24,-3,-17,-4
1461663442436488,-19,-69,33,8,-13,-6,5,2
1461663442436488,4,-26,-49,-55,-22,3,48,8
1461663442445496,-5,22,-11,-53,-22,-2,-37,-18
1461663442445496,14,-11,16,20,-4,-5,-32,-27
1461663442458550,-3,24,-7,-4,18,6,-11,-7
1461663442458550,9,-40,-8,18,-3,-19,-26,-1
1461663442467555,-24,-10,12,9,-5,-11,6,7
1461663442467555,-4,-20,-17,-27,-18,6,27,6
1461663442481565,14,-15,-8,-35,-15,-11,28,7
1461663442481565,-30,-18,14,5,-4,-13,-49,-12
1461663442490514,52,17,9,16,7,8,27,7
1461663442490514,-9,8,-45,-13,-16,-9,-5,3
1461663442496552,13,53,37,4,5,-11,-37,0
1461663442496552,-18,1,-16,46,30,-11,-8,-8
1461663442505554,3,-78,-18,22,2,0,1,-12
1461663442505554,10,-40,-1,-39,13,47,123,24
1461663442518563,14,112,41,49,21,36,47,27
1461663442518563,-15,63,11,-14,-20,-11,-36,-38
1461663442527557,28,42,5,-10,8,0,-59,-11
1461663442527557,13,20,-30,-47,-11,-26,-47,18
1461663442541549,-3,-30,23,90,11,-24,-14,12
1461663442541549,-28,-34,-5,15,17,24,102,20
1461663442550574,-47,-52,-13,-92,-47,4,-25,-20
1461663442550574,45,45,-16,8,14,-8,-71,-18
1461663442556574,3,38,-17,-2,-11,-26,-63,4
1461663442556574,-25,-16,29,37,8,-2,47,-20
1461663442565568,-37,-37,-12,-35,-8,43,84,-19
1461663442565568,12,-18,17,-13,-17,20,46,44
1461663442578635,14,-95,-21,4,9,-47,-82,-8
1461663442578635,-5,20,-14,16,1,-39,-82,-3
1461663442587581,18,18,0,-34,-40,-28,42,-3
1461663442587581,-22,-14,1,1,18,31,-1,-18
1461663442602594,-9,51,30,37,12,42,70,15
1461663442602594,4,-34,-11,-72,-17,4,3,-14
1461663442610612,12,-5,3,-34,-15,7,63,19
1461663442610612,-37,-21,-13,92,57,-3,-31,11
1461663442616661,36,7,65,-14,-27,-3,-4,1
1461663442616661,23,0,-19,18,32,8,-38,-10
1461663442625609,-17,42,-7,72,39,-23,-58,-21
1461663442625609,8,-100,-18,-96,-58,-1,50,5
1461663442638632,-19,-128,-31,66,43,34,-25,9
1461663442638632,-30,-93,13,-31,-49,-64,-74,-40
1461663442647624,13,-77,14,10,-4,13,19,4
1461663442647624,2,-58,-27,-22,-6,-12,20,11
1461663442670696,25,-33,-27,-67,-13,10,40,32
1461663442670696,11,12,13,-20,-11,57,52,-3
1461663442671643,-33,126,34,2,-26,-59,-118,-56
1461663442671643,-26,127,12,41,18,-20,-62,14
1461663442676650,-8,68,-74,-68,-3,-12,-10,-16
1461663442676650,18,65,30,25,-20,8,46,5
1461663442685660,-6,-1,-4,57,42,56,81,25
1461663442685660,-24,-39,33,-31,-31,-43,-44,6
1461663442698668,44,-61,74,11,-19,-24,30,30
1461663442698668,-22,4,-37,-28,4,9,-28,-37
1461663442707670,-32,-7,-51,-87,-77,-21,-77,-58
1461663442707670,38,-62,6,90,96,44,100,79
1461663442721676,59,-51,13,-91,-22,9,6,39
1461663442721676,-79,14,-13,-11,-2,7,-28,-76
1461663442730684,-20,11,-19,-27,4,-26,39,-32
1461663442730684,62,8,-18,-7,-27,-19,-9,32
1461663442736699,13,-18,-20,18,-8,-5,11,37
1461663442736699,-12,29,-9,-6,19,9,4,-11
1461663442745726,-27,8,-45,-37,-2,1,-52,-52
1461663442745726,34,-33,-26,-33,-42,6,41,10
1461663442759762,24,-29,-16,62,46,39,23,22
1461663442759762,-30,15,10,-19,16,-5,-15,-36
1461663442767734,-95,77,2,127,68,-22,-16,8
1461663442767734,67,-22,83,-115,-78,-15,-25,42
1461663442781747,18,-8,-44,-99,13,25,9,-6
1461663442781747,8,8,48,113,99,20,31,-34
1461663442790726,-79,7,-1,-99,-25,-4,7,-26
1461663442790726,12,-35,15,-75,-79,18,54,48
1461663442796754,52,-16,-41,33,45,-9,-68,33
1461663442796754,-37,18,-3,43,-13,-25,-45,-41
1461663442812747,127,0,51,102,64,46,114,46
1461663442812747,-68,-7,-20,-33,-17,-6,-51,4
1461663442818750,-31,-18,-36,-34,-52,-36,-11,5
1461663442818750,-14,8,-19,-14,-12,2,56,-23
1461663442827751,7,16,36,-42,-20,22,-22,-25
1461663442827751,5,-39,-40,1,3,-57,-69,17
1461663442841765,75,-10,41,19,-17,-6,-26,7
1461663442841765,-27,22,16,41,0,-14,36,-21
1461663442850770,-21,9,-74,-62,-3,63,47,-35
1461663442850770,37,-31,57,-2,-14,-37,-47,8
1461663442856794,-26,14,12,63,80,6,-15,42
1461663442856794,1,-2,2,-75,-40,-6,-25,-18
1461663442865780,71,3,-11,-79,-36,7,-9,-12
1461663442865780,-19,-8,19,5,-28,2,47,2
1461663442887806,-45,-10,32,64,52,4,-19,22
1461663442887806,-23,14,13,-28,-23,-7,16,0
1461663442889794,91,-2,6,7,44,27,0,-23
1461663442889794,47,-25,-46,-2,-9,-28,-65,10
1461663442901820,-97,11,-14,-42,-78,-44,-33,-23
1461663442901820,-46,15,5,10,4,1,-8,-13
1461663442910873,-62,2,-13,-100,-61,-15,-31,-17
1461663442910873,42,-8,-26,24,48,25,39,9
1461663442916851,72,3,-11,-6,-10,14,37,13
1461663442916851,19,8,-10,-39,-17,-8,44,1
1461663442925851,-55,11,25,-57,-23,-14,-33,-11
1461663442925851,18,-18,87,102,74,25,-26,8
1461663442947894,-40,9,-4,-36,16,12,10,-8
1461663442947894,-8,8,-37,-102,-18,4,20,-16
1461663442948839,40,-5,-12,-24,-57,19,-5,-36
1461663442948839,-77,-5,32,10,53,-37,-55,-1
1461663442961860,64,9,-2,-112,-35,-34,-20,0
1461663442961860,5,-1,30,1,18,29,22,-8
1461663442977861,-62,7,-23,39,1,-37,38,9
1461663442977861,28,-17,-46,7,-5,31,-1,-3
1461663442984864,-8,7,4,0,-13,7,26,-23
1461663442984864,-5,0,-34,-20,-27,-2,-47,-2
1461663442986872,-27,2,50,62,16,-27,-33,34
1461663442986872,-20,-11,-13,-108,-94,-4,13,1
1461663443007879,-14,-1,-34,46,81,34,67,-9
1461663443007879,-20,5,-22,-11,-11,26,6,-15
1461663443008880,7,10,36,108,98,5,9,35
1461663443008880,-67,-8,-24,-10,27,7,38,15
1461663443021889,17,7,8,-56,-45,6,48,4
1461663443021889,0,5,-5,11,-14,-22,-66,-25
1461663443037901,-50,-5,19,53,14,-38,-61,-47
1461663443037901,31,4,-31,-37,-11,15,-22,-3
1461663443044919,40,-5,16,-60,-84,-45,-38,20
1461663443044919,10,-2,-13,110,59,-6,9,2
1461663443046919,23,-8,17,-9,-8,4,62,45
1461663443046919,-81,11,-15,-20,-7,18,29,-22
1461663443058973,25,9,-5,-33,-34,1,-28,-34
1461663443058973,32,-1,27,-38,-11,-11,-37,8
1461663443067924,-47,-3,-35,-37,-4,-9,-5,1
1461663443067924,18,-7,21,96,66,32,32,-5
1461663443080989,48,5,41,-35,-3,9,-1,0
1461663443080989,-29,0,-36,-83,-25,-3,11,-2
1461663443097950,-1,-6,32,85,51,17,-2,-9
1461663443097950,64,-7,9,13,7,21,105,13
1461663443104977,7,1,-2,-50,-19,31,-57,-39
1461663443104977,116,11,21,91,35,-50,-107,-14
1461663443119989,69,-10,-19,-52,-61,-43,-65,-14
1461663443119989,74,-6,1,6,2,41,16,9
1461663443119989,16,9,-11,13,-22,-57,-32,-12
1461663443119989,-19,-4,11,-42,-38,-18,-44,-17
1461663443127965,33,-2,-3,-14,-3,-9,-27,20
1461663443127965,16,-6,-16,-12,-8,-16,54,11
1461663443140990,-55,8,2,61,31,45,57,-40
1461663443140990,-13,-4,15,-41,-17,5,2,11
1461663443149979,-75,6,-32,102,63,-3,15,-7
1461663443149979,18,-10,-50,-1,-3,20,2,-3
1461663443165053,-45,10,28,-36,-11,-10,2,-34
1461663443165053,10,-3,24,83,50,9,28,-4
1461663443166992,-20,-2,10,19,-13,1,20,5
1461663443166992,8,-8,-12,-56,-17,19,8,-8
1461663443179012,-19,14,-54,-2,-17,-31,-67,-25
1461663443179012,-18,-3,1,-28,-35,-38,-12,0
1461663443188013,-75,5,-47,-37,-22,2,-36,-14
1461663443188013,9,-2,-10,-23,-6,-19,-17,1
1461663443201023,-22,5,2,11,-10,-26,-30,-16
1461663443201023,-29,-7,-7,-46,-32,5,15,-15
1461663443210030,24,-10,10,-62,-28,-13,-17,10
1461663443210030,16,-8,7,55,30,4,4,2
1461663443225032,-42,6,-7,-24,-2,19,55,-12
1461663443225032,-8,3,10,24,9,22,16,-14
1461663443227036,5,-7,3,2,23,4,3,36
1461663443227036,-2,-9,30,40,21,-10,-20,0
1461663443239058,-4,-3,9,13,15,13,15,-2
1461663443239058,-22,7,8,-70,-33,-1,4,-10
1461663443248061,44,1,-15,5,16,11,34,18
1461663443248061,14,-12,-9,-45,-22,4,1,-1
1461663443261070,68,5,8,32,8,22,96,6
1461663443261070,27,12,1,-18,-12,-15,-75,0
1461663443270088,32,-73,-4,-24,-13,-30,-67,-10
1461663443270088,14,-15,-12,4,-13,-40,-26,-2
1461663443285087,57,-13,-6,-4,-2,30,12,4
1461663443285087,3,2,1,-23,-37,11,77,1
1461663443287088,-25,16,15,22,35,33,14,4
1461663443287088,-8,18,-2,25,29,-25,-61,-7
1461663443299084,-70,15,3,3,1,-7,4,-13
1461663443299084,-5,2,-20,33,31,13,28,-1
1461663443314134,12,9,20,-72,-51,-9,-6,-3
1461663443314134,0,0,16,7,10,10,10,-3
1461663443321138,-26,13,-2,16,19,0,-22,-9
1461663443321138,-4,-20,3,12,10,-2,-12,-4
1461663443330106,7,-29,-10,-19,-18,-11,12,-4
1461663443330106,17,7,-21,-24,-16,-15,-1,9
1461663443345176,-30,6,-1,-9,-6,9,-4,3
1461663443345176,-25,-7,-23,13,6,-1,-32,-4
1461663443347153,20,-18,17,20,2,-36,24,25
1461663443347153,11,-21,5,-18,-14,37,-39,-12
1461663443359185,-23,45,-17,22,6,22,-17,10
1461663443359185,-23,-128,-20,-72,-32,5,26,-3
1461663443375138,3,-10,22,82,31,9,21,22
1461663443375138,20,120,-5,-30,-25,-39,-8,3
1461663443381201,25,65,16,-13,12,-5,8,-19
1461663443381201,9,114,-7,57,43,20,12,-2
1461663443396225,23,89,33,-58,-27,-13,-4,-8
1461663443396225,-19,127,13,43,14,9,2,4
1461663443406184,-27,90,-19,-15,-7,-4,-10,-25
1461663443406184,0,18,5,5,7,-1,-2,-9
1461663443407186,19,9,-7,-23,-8,4,-2,6
1461663443407186,-9,-47,-14,-28,-12,0,6,3
1461663443419175,-24,-103,12,10,-3,-20,-25,-29
1461663443419175,1,-125,-5,-3,-2,-9,13,-4
1461663443428182,30,-128,-5,6,4,7,20,30
1461663443428182,14,-59,-8,-23,-11,-6,-7,1
1461663443441186,-49,-128,-11,16,0,12,37,5
1461663443441186,-22,-128,-8,4,-4,-1,-50,-10
1461663443450193,53,-128,9,-1,-5,-46,-26,5
1461663443450193,23,-75,-16,-15,-7,55,13,2
1461663443465203,-35,-87,-4,-23,-16,-40,-27,-22
1461663443465203,-16,16,3,12,35,31,39,10
1461663443471207,3,63,0,11,11,19,10,3
1461663443471207,14,93,36,79,24,-26,-12,-3
1461663443488217,-19,82,-7,22,27,17,14,-20
1461663443488217,-7,49,-2,-9,-12,-1,-1,-9
1461663443489218,4,-8,-11,-9,-3,4,-6,0
1461663443489218,-11,12,2,-38,-14,-11,-5,1
1461663443501227,-11,-29,4,0,-9,6,-12,-14
1461663443501227,7,3,6,17,-3,-21,-10,-5
1461663443510233,1,-8,-3,-6,-7,3,6,6
1461663443510233,-14,28,-10,-23,-15,0,3,-2
1461663443524244,9,21,5,5,0,-23,-29,-15
1461663443524244,4,15,-2,-10,-1,1,27,2
1461663443531249,3,97,-5,6,-6,18,14,-11
1461663443531249,-1,91,-8,-17,-13,18,-9,-1
1461663443539266,-3,-5,-9,-9,2,-27,-29,-11
1461663443539266,-3,-56,9,17,15,43,39,9
1461663443548262,-4,-77,-17,-54,-23,2,22,6
1461663443548262,1,-44,29,99,52,-10,-27,-5
1461663443570301,-3,-19,-11,-25,-5,-10,-8,-6
1461663443570301,-13,-29,18,14,-4,-14,-10,-4
1461663443571293,4,-13,4,0,17,14,7,7
1461663443571293,3,7,-11,-27,6,-5,6,-2
1461663443584286,-5,7,9,17,-1,0,3,0
1461663443584286,27,40,-1,12,5,-2,-6,27
1461663443593308,-1,12,-1,2,-18,2,-15,-11
1461663443593308,-60,-9,-31,-41,-26,-24,-2,-60
1461663443599312,-23,18,8,6,3,7,5,-6
1461663443599312,30,1,-14,-23,-12,10,11,38
1461663443608315,13,-13,2,12,4,-21,-14,8
1461663443608315,-24,9,0,-18,-1,72,36,-35
1461663443621372,-2,-1,0,8,-3,-12,6,12
1461663443621372,35,13,7,2,2,-8,3,54
1461663443630334,-17,-2,-2,8,6,1,-17,-16
1461663443630334,-55,16,2,-2,-8,-27,-8,-96
1461663443644360,-13,-9,-9,-6,-1,1,-6,20
1461663443644360,60,2,-1,2,0,-7,-4,87
1461663443653344,20,-2,7,12,4,-1,0,6
1461663443653344,-56,19,2,-17,-14,-17,-7,-82
1461663443659369,-5,14,-12,-10,-7,4,6,6
1461663443659369,50,28,33,11,14,-13,-8,67
1461663443668362,18,-12,-70,-2,2,11,10,13
1461663443668362,-48,-6,-5,-17,-11,-6,-21,-94
1461663443681417,-7,16,36,2,1,6,3,6
1461663443681417,37,8,-10,2,2,0,-7,52
1461663443690361,9,13,35,13,6,13,3,-2
1461663443690361,-26,-4,-24,-6,-3,-26,-6,-46
1461663443703386,-8,3,-9,-4,-2,15,0,6
1461663443703386,16,-8,-20,-17,-11,-21,-9,31
1461663443712392,15,-12,-9,-1,0,18,14,-1
1461663443712392,-26,-11,0,-5,-2,-9,3,-30
1461663443727447,-6,-2,9,8,2,-4,-1,6
1461663443727447,21,1,9,1,-2,-8,-2,24
1461663443729390,11,9,28,0,-1,-8,-2,-3
1461663443729390,-25,-20,-14,-2,1,-9,-5,-21
1461663443741418,-9,-7,0,5,-1,5,4,4
1461663443741418,14,-15,-18,-7,0,3,-4,13
1461663443750403,2,-11,0,0,-2,-7,-9,-7
1461663443750403,-15,14,31,4,-1,3,-2,-15
1461663443764414,-4,-7,-11,4,0,-11,-2,2
1461663443764414,11,6,5,-9,-5,4,-6,10
1461663443773436,6,1,15,7,8,4,1,-1
1461663443773436,-16,-5,2,4,1,-6,3,-10
1461663443778518,-3,-10,-28,-8,-8,-2,0,1
1461663443778518,15,8,14,-1,-1,0,-3,10
1461663443787478,-6,-13,-17,-3,-4,1,-2,-4
1461663443787478,-19,-6,2,-5,-5,-5,-4,-11
1461663443801488,-5,-1,1,-2,0,2,-1,3
1461663443801488,10,-5,3,2,1,2,-1,7
1461663443810497,4,2,-5,1,-1,-7,-3,-3
1461663443810497,-16,-9,-13,-5,-4,-15,-4,-8
1461663443823550,3,6,21,6,2,0,0,2
1461663443823550,12,-10,-10,-8,-3,8,2,8
1461663443832587,-5,-24,-32,-11,-3,5,2,-5
1461663443832587,-15,1,1,-2,-3,-3,-1,-5
1461663443849599,3,17,20,8,6,3,1,1
1461663443849599,13,5,2,3,-1,-8,0,6
1461663443850601,-1,-6,-1,-3,-3,-5,-3,-3
1461663443850601,-14,-4,-12,-3,-1,7,0,-7
1461663443861666,-1,0,-4,-4,1,1,2,0
1461663443861666,12,13,33,11,6,-2,1,4
1461663443870625,8,6,-3,-1,-5,2,1,-2
1461663443870625,-22,-20,-6,-12,-5,-5,-5,-9
1461663443884636,1,-4,-22,-5,-2,-6,-1,2
1461663443884636,6,-6,-1,-9,-8,-2,-2,1
1461663443891687,0,13,26,8,6,-3,-1,-1
1461663443891687,-10,-18,-21,1,-2,-1,0,-5
1461663443908667,-6,-14,-19,-7,-4,2,-2,1
1461663443908667,4,-6,-19,-11,-4,3,0,2
1461663443909643,4,9,10,1,-3,-7,-3,-4
1461663443909643,-2,6,5,0,3,0,-3,-5
1461663443921652,-1,0,5,-1,0,0,-1,1
1461663443921652,5,-10,-14,2,0,-6,0,2
1461663443930683,-1,1,5,2,-1,-3,-5,-3
1461663443930683,-3,5,7,2,2,-4,0,-2
1461663443944673,4,9,9,6,4,8,2,3
1461663443944673,-2,-22,-12,1,1,-1,2,2
1461663443951678,-1,6,0,-5,-3,1,-3,-3
1461663443951678,-2,-6,-2,-2,-3,-2,-1,-1
1461663443967684,-3,-4,-1,-2,-4,-5,-4,1
1461663443967684,-1,-2,-4,-1,-3,-2,-1,0
1461663443969742,3,-2,-3,-1,2,3,-1,-1
1461663443969742,0,4,0,-1,0,-1,-2,-3
1461663443981751,-1,1,10,12,4,-2,0,0
1461663443981751,1,2,-8,-3,-2,1,1,-1
1461663443990700,0,-5,-3,0,-3,-4,-2,0
1461663443990700,3,13,15,-2,-5,1,-2,-1
1461663444004709,-5,-15,-12,-6,-4,-1,0,-1
1461663444004709,-1,1,-5,-2,-3,-2,-1,0
1461663444011718,2,-2,0,-1,0,1,-1,-3
1461663444011718,-2,-3,2,1,0,1,0,-1
1461663444027788,-3,3,-2,-3,-1,3,-2,0
1461663444027788,-2,4,10,4,3,-2,1,-1
1461663444029732,-1,-5,-4,-3,-2,-1,0,-2
1461663444029732,-4,-1,-1,1,1,1,-1,-1
1461663444041764,4,13,7,1,-1,-2,0,1
1461663444041764,-3,-14,-7,-2,-1,0,0,-1
1461663444050768,-1,-2,0,-1,-2,1,-1,-3
1461663444050768,-1,-6,-1,0,-2,-3,-3,0
1461663444064771,-5,-1,-3,-5,-4,-3,-1,-1
1461663444064771,3,8,2,5,4,0,0,-1
1461663444071777,-4,-5,-6,-2,-1,-3,-1,-2
1461663444071777,-3,3,10,8,4,1,1,0
1461663444087827,-2,-2,0,-7,-2,-2,-2,2
1461663444087827,-2,0,-6,-9,-2,2,-1,-2
1461663444089834,-4,-4,-3,-1,-2,-3,-1,-3
1461663444089834,-3,1,-2,1,0,0,0,0
1461663444101792,2,-4,-2,1,0,0,-1,0
1461663444101792,3,2,-2,0,-2,-2,-1,0
1461663444110852,-5,-3,-1,-3,-3,-1,-3,-2
1461663444110852,-4,-3,-4,-5,-5,-2,-1,-1
1461663444124794,1,0,1,4,3,-1,-1,1
1461663444124794,3,1,-2,-5,-4,-1,-1,-2
1461663444131799,-1,-1,1,-1,-2,-1,0,-2
1461663444131799,-4,2,-2,-1,-2,2,-1,0
1461663444147810,-1,-1,-1,0,0,-1,-1,1
1461663444147810,1,0,-1,2,3,0,0,0
1461663444149812,-6,-4,-2,0,0,-2,-1,-2
1461663444149812,-4,-2,-3,-2,0,-1,-1,0
1461663444161820,1,1,0,0,-2,-1,1,0
1461663444161820,-1,-5,-2,-1,-1,0,-2,-2
1461663444170828,-4,-1,-1,1,-1,1,0,-2
1461663444170828,-3,1,1,0,0,-1,-4,-3
1461663444184838,0,2,1,-4,-4,-2,0,0
1461663444184838,1,1,-1,4,3,0,-1,-1
1461663444191858,-4,-8,-1,5,2,0,1,-3
1461663444191858,1,5,2,-1,-1,0,-1,0
1461663444207864,-2,-3,2,1,-1,1,1,0
1461663444207864,1,1,-7,-9,-6,-3,-1,0
1461663444208866,-1,2,0,-5,-4,1,-3,-1
1461663444208866,-4,-2,-1,3,0,-3,0,0
1461663444221862,4,4,3,-2,-2,-2,0,-1
1461663444221862,2,2,-2,-6,-3,1,0,1
1461663444230868,-2,-4,-3,-1,1,-1,-2,-1
1461663444230868,-2,-2,-1,-2,-5,-3,-2,-1
1461663444244878,-2,5,3,3,2,1,-1,-1
1461663444244878,0,-6,-1,4,0,-2,0,-1
1461663444251883,-1,-1,-2,-3,-2,-1,-1,-2
1461663444251883,-5,-4,-4,-3,-3,-3,-1,0
1461663444267909,-1,-7,-3,0,1,-2,1,1
1461663444267909,-1,0,3,1,0,-1,-2,0
1461663444275900,-1,0,-2,-1,0,0,-2,-2
1461663444275900,0,5,-2,0,-2,-2,-2,0
1461663444281904,-1,-6,-2,2,1,0,-1,0
1461663444281904,1,-3,-2,1,-1,-1,0,-2
1461663444289910,0,-1,0,-1,-4,-3,-2,-3
1461663444289910,-2,-3,-1,-2,-2,0,1,-1
1461663444304981,-2,-8,-4,-2,-1,-2,-2,0
1461663444304981,1,0,1,3,2,-2,0,-3
1461663444310986,-2,0,0,1,-2,-4,-2,-2
1461663444310986,-2,-2,-1,-1,1,0,0,1
1461663444328007,1,5,1,1,0,-2,0,0
1461663444328007,0,-2,1,0,0,1,-1,-1
1461663444333994,-2,-3,-5,-4,-2,-1,-1,-2
1461663444333994,-1,0,1,-1,-1,-1,-1,-1
1461663444341990,1,-2,0,-1,1,0,0,0
1461663444341990,0,5,0,-2,0,-2,-2,-2
1461663444349995,1,-1,2,0,-3,-1,-2,-3
1461663444349995,-4,-5,-5,-1,0,0,0,0
1461663444364061,0,2,-1,-1,-1,-2,1,0
1461663444364061,1,-1,-3,-1,1,0,-1,0
1461663444373010,-3,4,-1,-3,0,-2,-2,-2
1461663444373010,-2,-2,-3,1,0,-2,-3,1
1461663444388168,-1,1,2,0,-2,-1,-2,0
1461663444388168,2,-1,-2,0,1,0,0,1
1461663444389169,-4,-3,-5,-4,-1,-2,-2,-3
1461663444389169,-1,0,1,-3,-2,0,-1,-2
1461663444401188,0,-1,-2,2,0,0,1,-2
1461663444401188,-2,-3,0,1,-2,-2,0,-2
1461663444410184,-2,-2,0,1,0,-2,0,-3
1461663444410184,-3,0,0,0,0,-1,-1,1
1461663444424265,2,-1,-5,-2,0,0,-2,2
1461663444424265,-4,-1,3,-1,0,0,-1,-4
1461663444433201,-1,4,4,1,0,-2,0,-2
1461663444433201,0,-3,-1,1,-1,-1,0,0
1461663444448236,0,2,2,-2,-3,-2,-2,0
1461663444448236,0,-8,-8,-3,-2,-1,1,1
1461663444449212,-2,-2,0,-3,-2,0,-1,-2
1461663444449212,-1,3,0,-1,-1,-2,-2,1
1461663444461245,-2,-6,-4,-1,-2,1,0,-1
1461663444461245,3,4,-1,-2,-1,0,1,1
1461663444470227,-10,-9,-1,-1,-3,1,-2,-1
1461663444470227,-3,-5,-2,-1,-1,-1,-1,0
1461663444484242,-1,-1,0,-1,-2,-2,-1,-2
1461663444484242,-2,-1,-1,-2,0,0,-2,-2
1461663444493248,0,-6,-3,-3,-1,-1,-2,-1
1461663444493248,2,2,0,-2,0,0,-1,0
1461663444508255,-1,1,-2,-2,0,-1,-1,2
1461663444508255,1,1,0,0,0,-1,-1,-1
1461663444509255,0,-1,-5,-1,-3,-1,-2,-2
1461663444509255,-2,-2,-2,-2,-1,-1,-1,-1
1461663444521279,0,1,-2,-2,-2,-2,-1,1
1461663444521279,-2,-9,-2,-1,-1,-1,1,-3
1461663444530271,-1,0,-1,-2,-1,0,0,-2
1461663444530271,0,3,0,0,-1,-1,-2,0
1461663444544343,0,-2,-2,-2,-1,-1,0,0
1461663444544343,1,3,2,0,0,0,-3,0
1461663444553300,1,-1,-2,-2,-2,-1,-1,-2
1461663444553300,-4,-4,-2,-1,-2,-2,-2,-2
1461663444568296,0,-1,2,1,0,-1,0,-1
1461663444568296,-2,0,0,-2,-2,-1,-1,-2
1461663444569297,0,0,-4,-2,-3,-2,0,-4
1461663444569297,-4,1,1,-1,-1,-1,-2,0
1461663444581310,-1,-3,0,1,0,2,-1,1
1461663444581310,-4,-6,0,-2,0,-1,-1,-2
1461663444590316,0,-1,-3,-5,-3,-1,-1,-2
1461663444590316,-1,-3,-2,-2,-1,-1,0,-1
1461663444604328,-2,-3,1,2,-1,0,0,-2
1461663444604328,0,0,-2,-1,-1,-1,0,-2
1461663444619360,0,3,1,1,-1,-1,-2,-2
1461663444619360,-1,-6,-3,-3,-5,-2,-1,0
1461663444627355,-2,1,0,2,3,0,1,0
1461663444627355,3,5,-1,-2,-4,0,-1,-1
1461663444629341,-2,1,2,-1,-2,-2,-2,-3
1461663444629341,-4,-7,-4,-1,-2,-1,-2,-1
1461663444641365,-1,1,-3,-2,-2,-2,0,-2
1461663444641365,1,4,0,-1,-2,-1,0,-2
1461663444650360,2,-2,-4,-1,-1,0,0,-2
1461663444650360,2,2,-1,-1,1,0,1,0
1461663444664365,1,-7,-5,-4,-2,-1,-1,-1
1461663444664365,3,4,0,0,-1,-2,0,1
1461663444673389,-2,0,3,0,-3,-1,-3,-2
1461663444673389,0,-1,-1,-1,0,-1,-1,-1
1461663444687398,0,-1,-1,-2,0,-1,-1,0
1461663444687398,-1,-3,-3,-1,-1,-2,-2,-2
1461663444694402,-3,-3,0,0,-1,1,-2,-4
1461663444694402,-2,-1,1,-1,-2,0,-2,0
1461663444701407,0,2,0,0,1,0,1,1
1461663444701407,-1,3,5,3,0,-1,-1,0
1461663444710396,-5,-5,-6,-3,-2,-3,-2,-1
1461663444710396,-2,3,-1,0,-1,-2,2,0
1461663444724407,-2,0,1,-1,0,-2,0,-1
1461663444724407,0,-2,-1,-2,-1,-1,2,0
1461663444732476,-1,2,-3,-2,-4,-2,-1,0
1461663444732476,-2,-3,0,-1,0,-1,0,1
1461663444747491,-3,-4,-1,1,-1,-1,-1,-1
1461663444747491,-1,4,0,1,2,-1,0,-3
1461663444753490,-5,-2,0,-3,-3,-1,-1,-2
1461663444753490,2,3,-4,-3,-2,0,-1,0
1461663444761542,1,2,-1,-2,-1,0,-1,1
1461663444761542,-6,-16,-4,0,0,0,-3,-3
1461663444770489,1,-1,-2,-1,-1,-1,-1,-3
1461663444770489,0,2,1,0,-2,-1,-1,2
1461663444784501,-1,3,1,0,-2,0,-2,0
1461663444784501,2,-2,-2,-3,-1,-1,-1,-1
1461663444800511,-3,-4,-3,-4,-3,-2,-1,-3
1461663444800511,-3,0,0,2,3,1,2,1
1461663444807515,0,-1,-4,-1,-1,-3,-1,1
1461663444807515,-1,-1,3,2,0,0,0,-1
1461663444813538,-1,-3,-2,-2,-2,-4,-3,-4
1461663444813538,-1,0,-1,0,-2,-2,0,-1
1461663444830595,-1,1,-2,-1,-2,0,-1,-1
1461663444830595,-6,-4,0,-2,-3,1,-4,-3
1461663444831564,2,2,-1,-1,0,1,-1,-2
1461663444831564,0,-1,-1,-1,0,-1,-1,0
1461663444843600,-7,-3,-2,-3,-1,-1,0,-1
1461663444843600,0,10,1,-2,-2,-2,3,-1
1461663444852567,0,0,1,1,-1,-2,-2,-2
1461663444852567,-2,-3,-2,0,-1,-1,-2,2
1461663444867603,3,0,0,0,2,-1,-1,0
1461663444867603,2,1,-1,-2,-1,0,-1,-1
1461663444881627,-2,-1,-1,-1,1,-1,-1,-3
1461663444881627,-2,-7,-5,-4,-1,-1,-3,-1
1461663444890606,-2,-5,1,1,2,-3,-3,-2
1461663444890606,-1,-2,-6,-1,0,-4,0,-1
1461663444891576,-3,2,1,3,1,-2,0,-3
1461663444891576,1,-4,3,-1,-1,0,0,-1
1461663444903730,2,-1,0,0,-2,2,1,1
1461663444903730,-2,-2,-2,0,-1,-1,0,0
1461663444912713,-3,1,-2,-1,-1,-4,-4,-3
1461663444912713,-2,0,-1,0,-1,-2,-2,-1
1461663444926782,1,3,3,0,-2,0,-2,3
1461663444926782,0,-3,0,1,0,0,0,1
1461663444933728,-2,-4,-2,-3,-1,-1,0,-1
1461663444933728,0,0,-1,0,-1,0,0,-1
1461663444950756,0,1,-1,-4,-4,-2,-1,-3
1461663444950756,1,-3,-2,-2,-1,-2,-1,-3
1461663444951742,-1,0,0,0,2,1,0,-3
1461663444951742,-4,-4,-3,-2,-3,-3,-3,-1
1461663444963778,2,-1,-2,1,2,1,0,0
1461663444963778,2,0,-2,-2,-1,-2,-1,0
1461663444972756,-1,-3,-4,-3,-2,-3,0,-2
1461663444972756,-5,-1,-1,-1,0,-2,0,0
1461663444986794,4,1,6,2,2,1,2,3
1461663444986794,-4,-5,-5,-3,-3,-5,-3,-5
1461663444993799,1,-6,-9,-4,-3,-1,-2,-1
1461663444993799,-1,5,-2,0,0,-3,-2,0
1461663445010811,-4,-10,-3,-1,0,-1,-1,-1
1461663445010811,2,3,5,2,2,3,0,1
1461663445011782,0,0,0,0,-3,1,-2,0
1461663445011782,-8,-1,-3,-2,-3,0,-2,-1
1461663445023807,-1,-1,0,-2,-1,-1,0,-2
1461663445023807,2,2,-1,-1,-1,1,-1,-2
1461663445032800,-2,-1,-2,0,0,-2,-2,1
1461663445032800,1,4,5,3,2,2,1,1
1461663445054842,-1,-2,-2,-3,1,-2,0,2
1461663445054842,1,2,0,3,0,-4,-1,-1
1461663445062833,-1,1,0,1,-1,-5,-3,-4
1461663445062833,0,-3,-1,-3,-2,-3,-3,0
1461663445070842,1,-3,0,-2,-2,-1,-2,1
1461663445070842,0,-2,-3,-5,-2,-1,0,-2
1461663445071827,-5,-9,-3,-2,-3,-1,-1,-3
1461663445071827,3,3,2,4,2,0,0,0
1461663445083846,2,2,2,0,0,-2,-1,0
1461663445083846,4,3,0,-1,-1,0,-1,-1
1461663445092840,-8,-11,-1,-3,-1,-3,-2,-6
1461663445092840,-5,-4,-3,-3,-2,-3,0,-1
1461663445107881,1,-1,-4,-1,-2,-2,-2,2
1461663445107881,0,3,2,1,-2,1,-2,0
1461663445113862,-3,1,-1,-2,-2,-1,-2,-2
1461663445113862,1,1,3,0,1,-2,-1,0
1461663445129875,2,2,-3,-2,-2,-1,0,0
1461663445129875,-3,0,1,0,-2,-1,-1,-1
1461663445131871,-9,-15,-2,1,1,-1,-1,-2
1461663445131871,-2,-1,-4,-1,-1,2,0,1
1461663445143880,0,1,-2,0,1,-2,-3,-1
1461663445143880,-1,-5,-2,-1,0,-2,-2,-2
1461663445152887,-4,3,1,-1,-2,0,0,-2
1461663445152887,2,-1,-1,-1,-3,1,-1,0
1461663445166923,5,6,1,0,-1,1,1,-1
1461663445166923,-6,-10,-3,-3,-2,1,0,-4
1461663445173957,0,2,-2,-2,-1,-1,-3,-2
1461663445173957,-2,-4,-2,-1,-2,1,-2,0
1461663445189920,2,5,1,1,1,0,-1,-1
1461663445189920,1,0,0,-1,1,-2,-2,-2
1461663445191910,-2,1,0,0,-2,-2,-1,-3
1461663445191910,0,1,3,1,0,-1,0,1
1461663445203940,0,-4,-3,-1,0,0,-2,-2
1461663445203940,0,1,0,-1,-3,-1,0,0
1461663445212929,-2,1,-1,-3,-1,0,-1,0
1461663445212929,-2,1,-1,0,-3,-1,1,-1
1461663445226936,-4,-2,0,1,-1,-2,-1,-1
1461663445226936,-6,-7,-4,-1,0,-1,-2,-4
1461663445233942,4,6,-2,-4,-2,0,-1,1
1461663445233942,-1,-8,-1,0,-1,-1,-2,-1
1461663445249952,-3,-1,0,0,-1,0,-1,-2
1461663445249952,0,6,-1,-2,-1,-1,-1,-1
1461663445251951,-1,4,-1,0,0,-2,-3,0
1461663445251951,-3,0,-3,-3,1,-2,-2,1
1461663445263961,-2,-1,-2,-2,-1,-1,0,0
1461663445263961,2,-4,1,0,1,-1,-1,0
1461663445272966,4,-3,-2,-1,-3,0,0,-4
1461663445272966,2,2,0,-1,0,-1,0,1
1461663445286977,-2,1,1,1,-2,0,-1,-2
1461663445286977,2,1,2,2,0,-2,0,-1
1461663445293985,1,-4,-4,-3,-3,-2,-3,-2
1461663445293985,-3,-3,-2,-1,0,-1,0,-1
1461663445310072,-5,-4,-1,1,-1,-1,2,0
1461663445310072,1,1,-2,-1,-2,0,0,-3
1461663445312048,0,-2,0,-1,-4,-1,-1,-4
1461663445312048,-3,-1,0,-1,1,-1,0,0
1461663445324080,-3,-2,-1,-1,-1,-1,-3,3
1461663445324080,2,-1,-1,-2,2,-2,1,-3
1461663445333158,-1,-1,1,0,-1,-3,-2,-4
1461663445333158,-4,0,0,-1,0,-2,0,3
1461663445347154,-4,-3,0,1,0,-1,0,1
1461663445347154,1,-1,0,-2,-2,3,-1,-2
1461663445361183,1,-2,-4,-1,-3,1,-1,-5
1461663445361183,0,-2,0,-1,-3,0,-1,2
1461663445370234,-2,0,1,0,0,-1,-1,3
1461663445370234,0,0,-2,-1,-1,-1,-1,-3
1461663445372202,1,-2,1,1,0,-2,-3,-7
1461663445372202,-1,-1,2,-2,0,-2,0,1
1461663445384194,-5,-1,0,0,-1,-1,-2,3
1461663445384194,-2,-3,-2,-2,-3,-1,-2,-4
1461663445393199,0,-3,-1,-2,0,1,-1,-4
1461663445393199,1,0,-1,-1,-3,0,-1,2
1461663445407192,0,-2,0,-2,2,-1,-1,3
1461663445407192,-2,0,-1,-2,1,-2,-2,-2
1461663445414257,0,-2,-1,-1,1,-1,-1,-5
1461663445414257,0,-1,0,-1,-1,1,-2,2
1461663445430268,-3,-1,-3,-3,0,0,-1,4
1461663445430268,1,0,0,0,-1,-2,0,-5
1461663445432220,-1,-3,-3,-1,-1,-4,0,-4
1461663445432220,1,1,-2,0,1,0,-1,2
1461663445444248,2,-1,-3,-3,-1,0,0,2
1461663445444248,1,-1,0,2,0,-1,0,-1
1461663445453232,-2,-1,1,1,-1,-2,-2,-4
1461663445453232,-1,-1,-1,0,-2,-2,0,0
1461663445467237,3,3,1,0,-2,-1,-1,0
1461663445467237,-2,-6,-5,-4,-4,-1,-3,-3
1461663445474274,2,1,1,-3,-2,-2,0,-4
1461663445474274,-2,-1,2,1,3,-1,-1,2
1461663445490266,-6,-3,-3,-2,2,-2,-2,1
1461663445490266,2,-1,1,1,-1,-2,-1,-2
1461663445492268,1,-2,-3,0,-2,-1,-1,-2
1461663445492268,-6,-2,-3,-3,-3,2,-1,1
1461663445504276,0,-1,-2,-1,-3,-1,-1,0
1461663445504276,1,-1,-3,-2,-1,0,-1,-1
1461663445513283,0,-2,-1,-3,-1,-3,-3,-2
1461663445513283,1,-1,-1,1,0,-1,0,1
1461663445527335,0,1,1,2,0,-1,1,2
1461663445527335,-1,-3,-3,0,-2,-1,-1,-3
1461663445534389,-3,-1,1,-1,-2,0,1,-5
1461663445534389,-1,-1,2,-2,-1,-1,0,0
1461663445550382,-2,-3,0,0,0,0,0,1
1461663445550382,-1,-2,1,1,0,-3,-2,-2
1461663445552403,0,0,-2,-2,-1,0,-2,-1
1461663445552403,0,-2,-3,-2,-2,-1,-2,1
1461663445564422,-3,-2,-2,-1,-1,0,-1,-2
1461663445564422,-2,-1,1,1,-1,-1,-2,-2
1461663445573443,-4,-1,-3,-1,-1,-2,-1,-1
1461663445573443,-3,2,-1,-4,-2,-3,1,1
1461663445587421,-1,2,2,0,0,0,0,-1
1461663445587421,-1,-1,-1,-2,1,-1,-1,-3
1461663445594431,-1,-2,-2,0,-2,-2,-3,-2
1461663445594431,0,1,-2,-1,-2,0,-3,0
1461663445617461,0,-2,-1,-2,2,-3,0,0
1461663445617461,3,-3,0,1,-1,-2,-1,-2
1461663445619439,0,-2,0,-3,-1,-2,0,-1
1461663445619439,-3,-4,-3,-2,-1,-2,-1,1
1461663445624468,-3,-4,-1,-1,0,0,-1,-4
1461663445624468,1,-2,-5,-3,-2,-1,-2,-3
1461663445633451,-1,-1,-1,0,0,0,1,-1
1461663445633451,2,0,0,-1,1,0,0,2
1461663445647481,-1,0,-1,1,-2,-2,1,0
1461663445647481,-2,1,0,-1,-2,-2,-3,-3
1461663445654487,3,2,0,-1,-1,-3,-2,0
1461663445654487,-10,-4,1,3,0,-1,-1,0
1461663445669469,1,-1,1,-2,-2,1,1,1
1461663445669469,-3,-3,-3,-4,-1,1,0,-3
1461663445676472,-3,-2,-4,-3,-3,1,-3,-1
1461663445676472,3,2,1,1,0,-3,-2,2
1461663445684496,-1,1,0,1,0,-2,-2,-1
1461663445684496,-3,-1,-2,2,-3,-3,0,-3
1461663445699492,-4,-2,-2,-2,-2,-1,1,0
1461663445699492,0,-2,-1,-1,2,-1,-1,1
1461663445707510,0,-1,-2,1,0,-2,-1,-1
1461663445707510,0,1,-1,-3,-1,-1,0,-3
1461663445721520,-4,-2,-1,-1,-2,-1,-3,-2
1461663445721520,2,1,-2,1,-4,-1,-1,1
1461663445729525,0,-1,0,-2,0,1,-2,0
1461663445729525,-4,-2,-4,-1,1,-1,0,-4
1461663445736526,-1,0,1,-1,0,-3,-1,0
1461663445736526,-1,0,0,-1,1,-2,-2,1
1461663445743527,1,1,1,-2,-2,1,-3,-1
1461663445743527,-3,-2,0,-2,-3,0,-1,-2
1461663445752565,-3,-1,-2,-1,-3,-1,0,-1
1461663445752565,1,2,0,-1,1,-2,3,1
1461663445767576,1,-1,-1,-2,-1,-3,0,-2
1461663445767576,-2,-2,-2,0,1,-1,-2,-3
1461663445781585,-2,-4,0,1,1,0,-2,-3
1461663445781585,-2,-2,-3,-1,-2,0,-1,0
1461663445789564,3,0,-2,3,0,2,0,-1
1461663445789564,-3,-4,-2,-3,-3,-1,-1,-3
1461663445796596,-7,-7,1,-1,0,1,-1,-1
1461663445796596,1,2,2,1,2,0,0,2
1461663445813628,2,1,-1,-2,-1,0,-1,0
1461663445813628,1,0,1,1,-2,0,1,-2
1461663445814602,-3,0,-4,-1,-4,-2,-3,-1
1461663445814602,-3,-3,-1,-3,-4,-2,-1,1
1461663445827608,2,1,-2,-2,-1,-1,-1,-2
1461663445827608,2,2,0,0,-2,-2,-3,-3
1461663445833595,1,-1,-3,-1,0,-1,0,-1
1461663445833595,0,1,0,1,0,0,0,1
1461663445849608,0,-2,-3,-3,-1,0,0,-2
1461663445849608,0,-1,1,0,-1,-1,0,-2
1461663445856628,-1,-1,1,-2,0,-1,-1,0
1461663445856628,1,-3,-1,-2,-2,-3,-1,1
1461663445872674,-4,-4,-1,0,-1,-1,-1,-2
1461663445872674,-1,-2,0,1,-2,-2,0,-1
1461663445874618,0,1,-2,-2,0,-2,-2,-1
1461663445874618,-2,1,1,3,0,0,0,2
1461663445887655,-1,-1,-1,-1,-1,-2,-1,0
1461663445887655,2,0,0,0,1,0,1,-3
1461663445893635,-4,-4,-4,-1,-3,-2,0,-1
1461663445893635,1,-1,1,0,-2,0,-1,-1
1461663445909646,-2,-1,-1,0,0,0,-1,-1
1461663445909646,-3,-1,-3,-4,-1,0,-2,-1
1461663445916643,-2,0,-2,-1,-2,-4,-1,0
1461663445916643,2,0,-2,0,-1,0,-1,0
1461663445932654,2,-3,1,0,-1,-1,0,1
1461663445932654,-4,-4,-2,-3,0,-2,0,-5
1461663445934655,3,2,-3,-3,-1,1,-2,-2
1461663445934655,-4,-6,-1,-2,-2,-1,-1,0
1461663445947663,3,3,2,0,1,0,0,-2
1461663445947663,-1,-1,-1,0,-3,0,-1,-2
1461663445953702,-3,-2,1,0,-1,-2,0,-1
1461663445953702,-2,-3,-2,-1,1,-1,-1,1
1461663445977744,-3,-3,-2,-3,0,-3,-2,0
1461663445977744,0,1,-1,0,-2,-1,-2,-3
1461663445979745,-3,0,0,-2,-3,-1,-2,-1
1461663445979745,2,1,3,1,0,0,2,2
1461663445992755,-4,-4,-3,1,1,1,-1,-2
1461663445992755,-2,2,0,0,-1,-2,0,-3
1461663445994755,0,0,-3,1,-1,0,0,0
1461663445994755,3,2,-1,-2,0,0,1,1
1461663446006734,-3,0,-2,-4,-1,1,-2,-1
1461663446006734,2,0,2,0,1,0,0,-2
1461663446015714,-2,1,-1,-1,-1,-2,-2,-1
1461663446015714,-10,-12,-1,-1,-1,-1,-3,0
1461663446029752,1,6,0,0,-4,-2,2,-1
1461663446029752,2,2,-2,-4,-3,-2,-1,-2
1461663446036743,-4,-5,-1,-4,-1,-2,2,-1
1461663446036743,0,-1,0,2,2,0,0,2
1461663446051754,-3,-5,-2,0,-2,-1,0,-1
1461663446051754,-2,-4,-7,-5,-3,-3,-3,-3
1461663446060761,2,2,-1,-1,0,-1,-2,-1
1461663446060761,4,10,1,-3,-1,-2,-1,-1
1461663446066764,-1,-5,0,1,1,-1,0,-1
1461663446066764,-3,-3,-1,-3,-3,-3,-1,-3
1461663446075756,-7,-10,-5,1,-1,-1,-3,-4
1461663446075756,0,-1,-1,3,2,0,1,1
1461663446089776,-3,-2,-1,-1,0,0,0,-1
1461663446089776,-1,-4,-1,-4,-1,1,-2,-4
1461663446096798,-2,-3,0,-4,-3,0,-1,-1
1461663446096798,1,7,2,-2,-3,-1,-2,0
1461663446112810,1,0,0,-3,-3,-3,1,0
1461663446112810,-4,-8,-1,3,1,0,-1,-2
1461663446114812,-1,1,2,-1,-1,-2,1,0
1461663446114812,-3,0,-1,-1,-1,0,-3,-2
1461663446126820,2,-2,0,0,1,-1,1,0
1461663446126820,1,-1,-2,-2,-3,-3,0,-3
1461663446135805,0,0,-7,-6,-3,-2,0,2
1461663446135805,-1,-1,2,3,-1,0,0,0
1461663446149815,-2,1,1,0,1,1,0,-2
1461663446149815,1,-2,-1,-4,-3,-2,-4,-5
1461663446156828,-5,-4,2,-2,-2,-1,-2,-1
1461663446156828,-1,1,-5,-2,-2,-2,0,-1
1461663446172883,-5,-6,-2,3,6,0,-1,1
1461663446172883,-1,2,2,6,3,-2,1,-1
1461663446174889,-2,-5,-3,-1,0,-2,-2,1
1461663446174889,-1,-1,-1,-5,-3,0,1,1
1461663446186836,2,4,1,-2,-4,-2,-2,-2
1461663446186836,-3,-3,-8,-5,-2,-1,-1,-3
1461663446195842,1,-1,3,-1,-1,1,-3,0
1461663446195842,-5,-6,-2,-1,-1,0,-1,0
1461663446209852,2,6,0,1,0,-1,2,-1
1461663446209852,0,-3,-2,-1,-3,0,0,-2
1461663446216866,-1,-4,-4,-1,0,-2,-1,-1
1461663446216866,-5,-2,-3,-10,-4,-1,0,0
1461663446232883,-1,0,7,15,4,1,-1,0
1461663446232883,1,5,2,4,0,-1,-2,-1
1461663446234866,3,1,1,2,2,2,1,-1
1461663446234866,-2,3,-4,-8,-4,-1,0,0
1461663446246888,-1,-2,-3,-7,-1,-1,0,-1
1461663446246888,0,-5,-1,8,1,0,1,-4
1461663446255893,0,7,4,4,-2,-2,-1,-1
1461663446255893,-2,-8,-6,-8,2,-2,-1,0
1461663446269930,1,0,-2,1,-1,0,0,0
1461663446269930,-1,-3,-3,-8,-2,-1,-3,-2
1461663446276911,-7,-2,-2,5,1,1,0,-1
1461663446276911,-1,0,4,7,-2,-4,-2,-1
1461663446292947,3,4,-5,-11,-4,-3,-1,-2
1461663446292947,0,-4,-2,-4,-4,-2,-1,-2
1461663446294910,-1,0,2,-6,-4,-2,-2,0
1461663446294910,-2,1,-1,-1,1,-1,0,1
1461663446306940,-3,-7,-5,-1,0,-1,-1,0
1461663446306940,1,2,-2,-4,-2,-2,-2,-2
1461663446315929,-1,-4,-5,-6,-1,0,0,0
1461663446315929,2,1,1,-3,-4,-1,0,-1
1461663446330001,3,-2,-5,-11,-6,-1,-2,-2
1461663446330001,-2,-5,-2,4,5,0,1,-1
1461663446336958,0,3,0,2,-3,-4,-1,0
1461663446336958,2,-2,1,3,4,4,1,2
1461663446352966,-4,-5,3,-22,-11,-3,-1,-5
1461663446352966,-2,-4,-11,3,9,-1,-6,-3
1461663446353966,-3,-4,2,6,-7,-2,-6,3
1461663446353966,4,0,5,15,9,0,2,4
1461663446366969,-2,9,2,-12,-14,0,3,-2
1461663446366969,3,7,5,0,1,0,-1,-2
1461663446375968,-6,-6,-8,-4,5,1,0,-1
1461663446375968,-1,-3,-3,9,-2,-2,-3,-2
1461663446390006,5,3,2,15,9,3,11,2
1461663446390006,-1,0,1,-7,-8,-2,-7,-1
1461663446397004,-6,-4,-2,-17,-8,-1,-7,-4
1461663446397004,-3,8,3,-11,-9,-4,-5,-4
1461663446413022,1,-7,-13,7,6,0,2,0
1461663446413022,-3,-3,10,7,-5,-2,6,-2
1461663446414995,-2,0,0,-8,-3,2,11,4
1461663446414995,0,2,13,20,4,5,12,7
1461663446426004,-10,-3,-23,-23,-5,-8,-37,-12
1461663446426004,3,9,8,0,-19,-23,-13,-9
1461663446435011,2,-2,-15,14,9,4,-1,0
1461663446435011,-5,-1,12,-8,4,4,11,1
1461663446450019,-4,-10,-17,-16,-3,2,-8,-1
1461663446450019,6,3,1,8,3,3,0,-4
1461663446457025,-2,-11,-2,-5,-6,-11,-8,-5
1461663446457025,-14,-4,-22,-15,-1,3,12,0
1461663446473094,3,3,23,11,-1,5,22,8
1461663446473094,-1,-17,-19,-12,-2,-4,-23,-3
1461663446474038,-8,-1,3,15,-5,-15,-6,-1
1461663446474038,4,8,-4,-5,0,-5,-24,-4
1461663446486056,-4,1,3,-1,-2,-2,11,-4
1461663446486056,2,7,-11,-67,-21,3,23,-2
1461663446495110,6,-7,25,61,15,9,0,2
1461663446495110,-8,2,-16,-20,-9,-3,12,8
1461663446510126,3,-11,7,23,12,3,-24,-4
1461663446510126,-7,1,28,17,-7,-10,-3,-8
1461663446516068,18,29,-11,-4,13,0,-16,-3
1461663446516068,-28,-54,-23,-22,-9,0,10,3
1461663446533080,6,-21,1,-11,-3,4,-2,6
1461663446533080,-5,0,11,26,17,-2,-16,-9
1461663446535080,-5,-7,-5,-15,0,13,39,6
1461663446535080,10,24,2,-15,-21,-4,-21,-5
1461663446546150,5,14,9,22,17,-7,15,8
1461663446546150,17,7,-14,-12,0,-4,-32,7
1461663446556095,-13,-2,-3,-5,-10,-15,6,-3
1461663446556095,3,26,17,36,17,3,-5,-2
1461663446570134,-12,-2,1,-14,-13,4,1,-13
1461663446570134,22,40,13,28,13,13,19,3
1461663446576172,-9,-54,-23,-27,-16,8,16,15
1461663446576172,-5,-8,-12,-15,-4,4,14,9
1461663446592182,4,6,0,16,-4,-19,-38,-11
1461663446592182,-15,-28,-23,7,9,-5,-2,-11
1461663446599127,12,30,22,6,-13,-5,-12,0
1461663446599127,-12,-48,-1,-21,-10,-9,-15,-13
1461663446615165,7,18,2,17,0,10,35,4
1461663446615165,-3,26,-11,-42,-3,6,0,-9
1461663446617146,10,-15,7,18,15,2,-2,11
1461663446617146,7,15,3,-16,-21,-22,-38,-1
1461663446630179,-3,-16,0,1,7,14,48,10
1461663446630179,-23,-18,-36,-27,-5,9,12,-1
1461663446636166,-8,-6,16,23,10,-8,-11,-3
1461663446636166,-1,27,15,6,0,-6,-43,-10
1461663446652177,24,26,-22,-21,-12,-16,-51,-18
1461663446652177,13,-16,16,37,12,27,71,16
1461663446660167,-9,1,-2,-15,11,23,-19,1
1461663446660167,-15,-13,-14,-42,-31,-49,0,-7
1461663446666171,-27,3,5,-3,-11,-26,-28,-7
1461663446666171,-12,-23,0,-22,-25,-11,9,-5
1461663446675178,27,113,14,23,13,18,16,1
1461663446675178,5,48,-10,5,13,33,43,10
1461663446689189,10,83,-16,-36,-12,3,-14,-13
1461663446689189,-7,48,45,7,-9,-12,-50,-15
1461663446696232,37,37,15,15,33,17,13,12
1461663446696232,15,-38,0,-17,-4,23,96,25
1461663446720268,-23,-109,-14,-10,12,1,76,36
1461663446720268,-26,-64,-22,3,-22,-21,-57,2
1461663446722244,-31,4,-37,-21,-4,-33,-108,-42
1461663446722244,5,-61,44,94,41,1,-55,-30
1461663446735233,6,-90,23,-2,-19,21,27,-3
1461663446735233,25,-57,4,47,49,28,35,18
1461663446737223,-12,29,-14,-18,-23,-29,35,15
1461663446737223,19,21,-21,-28,-11,-5,9,21
1461663446749235,3,108,-11,-49,-19,-13,27,-8
1461663446749235,9,40,-9,-4,4,1,-74,-26
1461663446756292,-35,-97,-23,-75,-46,-21,-57,-28
1461663446756292,-20,63,49,71,36,15,-1,-6
1461663446772306,3,20,12,6,-5,5,40,31
1461663446772306,5,108,-6,8,13,24,96,20
1461663446779310,-14,30,-2,2,9,4,-28,-15
1461663446779310,18,48,-52,-115,-50,-43,-53,-18
1461663446797294,-29,59,47,117,50,0,-25,-12
1461663446797294,57,12,-16,-9,1,2,68,21
1461663446798270,14,26,15,-117,-30,19,2,27
1461663446798270,-48,-18,5,102,32,9,-8,-30
1461663446809302,-30,13,-10,-4,-9,-20,-77,-46
1461663446809302,-8,-31,6,-116,-65,-54,-85,-25
1461663446816294,45,45,-11,103,50,30,108,59
1461663446816294,-8,-16,31,52,11,10,7,17
1461663446832291,-25,24,4,1,12,-1,-42,-16
1461663446832291,-4,39,-17,-7,-14,-10,-5,-7
1461663446839355,-21,-65,-31,-52,-28,-1,16,-23
1461663446839355,2,-34,-45,36,44,33,51,1
1461663446855318,21,-55,-6,2,12,24,-10,21
1461663446855318,-26,26,-7,17,-5,-25,-56,-33
1461663446857326,12,73,25,53,15,-30,-59,-7
1461663446857326,-10,-10,-3,-37,-22,-11,30,13
1461663446869327,8,-29,2,-38,-23,0,1,-14
1461663446869327,40,-1,10,6,33,61,117,64
1461663446876351,-42,-42,33,-27,-13,0,-89,-47
1461663446876351,30,54,-10,43,21,-12,-14,12
1461663446892333,-1,-16,-14,-29,2,-11,-44,-5
1461663446892333,-51,-21,-21,-49,-32,0,23,-16
1461663446899339,19,77,-26,66,21,26,79,17
1461663446899339,-27,67,39,-34,-27,-36,-93,-16
1461663446915348,20,45,-54,-26,-11,-19,2,1
1461663446915348,55,-60,49,85,56,17,20,7
1461663446917349,-51,-59,-12,0,5,17,11,14
1461663446917349,27,-25,-60,-128,-64,-23,1,-11
1461663446929358,-9,-13,1,110,38,13,-12,14
1461663446929358,24,-59,43,21,-53,-53,-62,-12
1461663446936362,23,-32,-1,98,90,32,68,20
1461663446936362,-75,-10,-9,-8,-5,40,82,-7
1461663446952375,-16,-4,21,-11,-18,-11,-33,-22
1461663446952375,-10,-29,-7,-26,-36,-11,-82,-18
1461663446959380,45,-6,18,60,-9,-68,-73,-20
1461663446959380,-30,5,5,-8,-1,13,34,14
1461663446975392,9,18,20,-1,23,22,-7,19
1461663446975392,24,-35,-12,-58,-5,4,9,9
1461663446977393,-34,-4,-12,-27,-43,-65,-43,-30
1461663446977393,-41,22,-19,-62,-20,3,14,-47
1461663446989413,-53,17,-45,-59,-30,45,27,-8
1461663446989413,51,-43,66,86,98,-1,15,90
1461663446996434,-21,1,19,0,-41,-2,-39,18
1461663446996434,-38,18,-5,8,37,15,1,-53
1461663447012445,36,21,-40,-128,-100,-15,33,-16
1461663447012445,22,-34,-16,125,105,24,-12,45
1461663447019451,12,-6,8,-108,-22,-12,17,-3
1461663447019451,-3,7,21,-40,-4,31,40,-24
1461663447035462,63,4,30,48,50,11,14,-9
1461663447035462,17,-29,-18,-66,-52,-29,86,62
1461663447037444,-57,-17,-19,-10,-4,25,-24,-15
1461663447037444,-62,30,-27,72,-9,-55,-94,-10
1461663447049451,-106,21,-13,-31,-26,-29,-57,-49
1461663447049451,1,-29,1,-24,-26,-2,56,27
1461663447057465,41,4,-6,-3,8,43,74,11
1461663447057465,47,3,-2,-66,-58,-9,-32,-47
1461663447072499,125,8,76,127,73,-4,12,60
1461663447072499,-12,-22,-31,-111,-73,-44,-99,24
1461663447078504,-2,7,-48,-51,1,18,53,9
1461663447078504,-41,12,39,82,60,15,-32,-42
1461663447095491,33,-5,8,-20,-5,2,18,-8
1461663447095491,17,-18,-39,-46,-15,22,70,42
1461663447096492,-30,8,34,-21,-25,-18,-26,-11
1461663447096492,5,3,7,16,37,7,-32,-29
1461663447108501,0,6,-47,-40,29,38,80,15
1461663447108501,21,-15,69,91,-13,24,-6,28
1461663447118500,20,5,-1,-14,20,-74,-85,17
1461663447118500,-11,9,9,-6,9,-21,21,-19
1461663447132510,1,10,31,-57,2,55,-20,-46
1461663447132510,0,-27,-55,-13,-31,-54,-108,-32
1461663447139529,-10,6,2,9,-28,-17,9,-1
1461663447139529,-66,9,20,46,22,9,-4,-3
1461663447155525,67,-7,-90,-67,-65,-19,27,-12
1461663447155525,-4,-4,-22,-3,-18,32,-1,-2
1461663447157520,-29,-2,14,90,66,30,-7,9
1461663447157520,61,2,-66,-5,19,-10,5,-5
1461663447169536,-74,-7,12,2,-12,-21,19,21
1461663447169536,29,-1,44,-92,-70,-10,-18,-19
1461663447177533,12,-1,9,114,101,28,8,-12
1461663447177533,-13,-3,6,-49,-15,67,35,46
1461663447192544,28,1,-12,-42,7,-69,-81,-29
1461663447192544,11,-5,13,37,16,-22,-66,35
1461663447198548,-56,-1,-10,-67,-36,33,33,-42
1461663447198548,-24,4,9,-12,-33,-20,-7,-14
1461663447215572,13,-11,25,46,-9,-18,19,34
1461663447215572,12,-11,-27,-2,25,-14,-16,0
1461663447216562,-47,1,-13,-128,-72,-9,47,1
1461663447216562,18,3,-17,106,31,3,-27,-12
1461663447228568,-20,-8,28,-22,11,4,18,19
1461663447228568,42,-8,-95,-90,-3,0,-12,-17
1461663447243579,11,7,64,89,41,53,67,36
1461663447243579,-56,9,39,-111,-103,-44,-19,-51
1461663447252585,1,-17,-17,-32,-24,-13,-33,-4
1461663447252585,8,-9,15,121,71,30,23,12
1461663447258590,-7,6,-47,-121,-30,10,46,31
1461663447258590,-23,4,27,112,86,0,-17,5
1461663447282607,-3,6,22,23,-3,-16,-79,-20
1461663447282607,-2,-8,20,-3,15,47,59,7
1461663447284609,35,-4,-11,-30,-60,-53,-76,-16
1461663447284609,-16,5,-3,-61,-44,-41,-14,-1
1461663447288611,-9,-2,-17,5,9,12,-10,22
1461663447288611,-4,-1,4,12,-15,-64,-81,-48
1461663447303622,-40,4,3,-22,5,14,4,9
1461663447303622,-4,1,-21,-38,-17,16,43,17
1461663447312658,-72,-19,18,26,6,23,64,20
1461663447312658,-19,5,4,-15,-8,11,10,-35
1461663447318691,-42,-7,-49,-44,1,-5,-16,-14
1461663447318691,-16,4,55,19,7,4,-9,24
1461663447335657,-43,-6,39,106,61,24,35,-15
1461663447335657,11,-7,44,-14,26,23,38,-1
1461663447336658,85,3,31,61,32,0,-14,6
1461663447336658,1,3,8,15,36,25,39,5
1461663447348713,32,-12,-38,-72,-30,5,-24,-3
1461663447348713,-17,-2,-2,21,-21,-30,-13,32
1461663447357676,-28,2,-8,7,-16,1,-43,-43
1461663447357676,6,-1,3,-4,-4,8,54,20
1461663447372704,68,6,-6,5,-6,-19,-55,-9
1461663447372704,-79,-5,-24,-4,-6,-34,-1,10
1461663447378676,14,-4,-5,1,-22,-8,45,18
1461663447378676,13,-1,-11,-34,-14,26,-21,-10
1461663447395746,-79,-5,24,-7,2,-27,-7,-4
1461663447395746,9,5,-30,-41,-22,22,5,-19
1461663447396703,-21,6,-17,14,23,-5,8,-3
1461663447396703,10,-4,3,-39,18,11,10,5
1461663447408708,23,-8,-27,-50,-17,-10,-4,2
1461663447408708,6,4,26,61,50,27,19,2
1461663447417719,-43,2,11,-27,-30,-18,-21,-24
1461663447417719,0,4,-32,13,-1,-18,-32,-18
1461663447431772,-50,-1,0,20,-30,2,11,14
1461663447431772,3,-7,-36,-72,-47,9,21,13
1461663447438717,8,4,-21,2,-5,1,19,17
1461663447438717,21,-6,7,-11,-13,-36,-101,-31
1461663447455804,-34,5,2,0,3,-19,55,24
1461663447455804,22,-2,17,2,-2,-15,6,15
1461663447456785,-13,2,14,-5,9,34,-1,0
1461663447456785,-7,-5,-32,-17,-32,-41,-32,-22
1461663447468849,47,-4,-5,26,11,9,29,-3
1461663447468849,20,5,8,-53,-32,25,21,-14
1461663447477818,16,-2,-33,26,50,4,-8,22
1461663447477818,-27,-2,-23,-61,25,14,17,4
1461663447491827,33,-12,77,127,64,5,-21,-25
1461663447491827,9,10,6,38,36,3,9,7
1461663447498868,30,2,13,-37,-42,-11,6,-8
1461663447498868,-14,2,29,-1,-1,7,-21,8
1461663447514881,-12,-15,-16,10,-8,9,34,20
1461663447514881,-128,7,-37,-9,-14,1,-76,-80
1461663447521885,31,-7,20,24,2,-4,61,-9
1461663447521885,10,-1,-13,-6,-7,1,19,53
1461663447528891,75,0,-5,-51,-31,-32,-49,55
1461663447528891,-40,8,0,22,4,-8,-14,-26
1461663447537870,-55,-10,-25,-102,-51,7,50,-36
1461663447537870,3,2,13,60,14,17,1,7
1461663447551877,-98,-7,2,20,26,-22,3,18
1461663447551877,59,1,21,-72,-39,-2,19,14
1461663447560884,42,-1,59,73,65,25,-26,3
1461663447560884,3,-2,-24,17,28,-5,16,13
1461663447574926,55,-6,6,68,24,21,-21,-10
1461663447574926,53,3,11,-3,42,-1,10,4
1461663447581936,-32,-10,6,-20,-17,-4,-14,-21
1461663447581936,-20,1,-2,-44,-32,10,25,5
1461663447588878,29,-16,-12,-19,-4,3,-9,-14
1461663447588878,-2,0,-22,-47,-33,-16,4,18
1461663447597900,-6,12,10,42,0,-2,47,14
1461663447597900,48,-5,-15,6,-7,-21,-107,-21
1461663447611894,4,3,-12,-57,-24,-13,22,-15
1461663447611894,6,1,-12,-21,-15,47,86,20
1461663447618956,-51,1,-15,3,-10,-10,-49,11
1461663447618956,2,-2,8,13,3,-28,-20,-14
1461663447634919,18,-12,-24,-20,-1,-17,-54,-11
1461663447634919,6,2,-26,11,21,-5,-12,-2
1461663447641944,20,6,-7,4,-2,-1,-19,-18
1461663447641944,-46,-1,-1,47,2,16,48,-3
1461663447648976,36,-7,12,-66,-10,12,-9,-4
1461663447648976,23,5,-6,77,34,-4,0,0
1461663447657929,-57,-1,7,30,15,-4,-11,-15
1461663447657929,5,2,4,-13,-14,7,32,2
1461663447671963,-16,-10,-3,-10,-4,7,3,1
1461663447671963,18,-5,-3,-3,-1,-4,3,17
1461663447686957,79,-15,-1,-60,-39,-17,-27,-5
1461663447686957,0,-8,-12,2,7,-6,-12,-8
1461663447694966,-62,-16,-14,-1,-1,29,25,-8
1461663447694966,-2,11,25,4,17,18,-15,10
1461663447701971,20,17,11,15,-3,-22,-38,-22
1461663447701971,-8,3,8,-70,-50,17,11,8
1461663447718025,13,-7,-50,7,22,-12,15,17
1461663447718025,14,-1,31,38,20,-11,-10,-11
1461663447719983,-31,1,25,25,22,-3,3,4
1461663447719983,32,-1,14,28,12,7,15,3
1461663447732015,-16,-3,-21,-81,-42,-5,8,-13
1461663447732015,18,2,28,17,-34,-18,-40,-21
1461663447738993,13,4,-16,24,33,6,12,19
1461663447738993,-30,0,-5,-10,14,3,22,-2
1461663447755004,8,-11,19,43,12,13,-7,9
1461663447755004,8,-34,-15,-37,-16,-16,-7,-5
1461663447761036,-39,-128,-8,-29,-25,-27,-17,-16
1461663447761036,4,-128,7,8,0,18,27,4
1461663447778067,-9,-115,1,-1,-8,-10,-10,2
1461663447778067,1,101,-22,-13,-3,-15,-15,4
1461663447780026,-10,100,-16,-24,-11,56,43,-3
1461663447780026,-6,98,5,16,20,10,-4,-21
1461663447792049,70,127,8,-5,-8,-30,-14,41
1461663447792049,-57,86,-21,1,1,-13,4,-8
1461663447799082,27,-38,11,7,4,-22,-35,-22
1461663447799082,14,-34,-26,-65,-46,-27,-4,-4
1461663447815047,-34,-58,27,96,54,29,20,10
1461663447815047,-12,-42,12,-11,6,-2,6,11
1461663447822060,-16,-43,-1,-9,1,-4,-4,-13
1461663447822060,6,-80,9,11,22,12,17,0
1461663447838082,23,33,-15,-32,-33,-10,-4,-1
1461663447838082,17,50,4,3,2,13,-7,7
1461663447840058,-24,6,5,-11,9,9,1,-2
1461663447840058,-11,-42,-8,18,0,-17,-11,-3
1461663447852091,-11,13,5,-2,-2,5,-8,-13
1461663447852091,23,-61,1,-7,-3,-7,28,17
1461663447859095,1,-128,-12,-24,-17,-12,-13,4
1461663447859095,-5,-128,5,14,11,-7,-6,-19
1461663447875138,-35,-128,9,0,-3,8,28,13
1461663447875138,-34,-17,-21,-15,-8,18,-1,10
1461663447883085,-11,53,-33,-45,-26,-35,-50,-28
1461663447883085,-14,72,20,23,-2,-7,51,16
1461663447898132,37,114,11,29,14,5,-14,14
1461663447898132,9,127,20,30,20,3,-26,-14
1461663447899135,-25,110,-2,12,0,9,16,2
1461663447899135,-9,56,-6,-4,-3,9,-5,-12
1461663447911141,13,14,0,-31,-8,5,11,2
1461663447911141,9,11,2,31,35,8,17,13
1461663447920148,-9,15,12,30,21,6,-7,-12
1461663447920148,4,-9,-7,13,6,3,-4,-7
1461663447935119,8,10,-5,-4,-21,-9,1,6
1461663447935119,-8,11,-8,-17,-25,-40,-31,-5
1461663447941125,-18,-8,2,-11,-14,6,9,-15
1461663447941125,3,-11,0,-2,5,39,18,9
1461663447958165,7,-5,-1,-3,4,0,-1,0
1461663447958165,-30,-13,-4,-19,-10,-5,-13,-35
1461663447959161,17,-22,3,5,-5,-18,-4,30
1461663447959161,49,96,-1,4,8,-17,13,55
1461663447971177,-34,30,-5,-19,-6,39,-2,-40
1461663447971177,-69,26,-8,-1,-3,-4,-18,-61
1461663447980205,12,-96,2,6,6,0,4,25
1461663447980205,49,-83,-3,-6,0,-5,0,38
1461663447995170,-8,-67,-2,-6,0,-13,-1,-17
1461663447995170,-50,-56,-6,0,-6,-1,8,-38
1461663448001184,19,-46,-1,-10,-4,11,5,25
1461663448001184,54,-32,14,10,10,4,-12,35
1461663448033190,-14,1,6,-15,-3,-16,-1,-26
1461663448033190,-51,22,9,20,7,9,2,-40
1461663448035193,22,7,-44,-19,-2,5,7,29
1461663448035193,47,12,0,-13,-8,-11,-9,31
1461663448036193,-19,13,6,17,-1,-5,-4,-27
1461663448036193,-52,12,-7,-6,0,11,1,-32
1461663448040223,28,34,11,2,-4,-2,2,27
1461663448040223,30,-6,-10,-12,-5,-2,-9,19
1461663448055207,-25,10,-13,-5,-2,-6,-10,-26
1461663448055207,-33,-2,-1,-10,-6,19,9,-17
1461663448061228,25,19,21,9,3,3,7,25
1461663448061228,23,-36,-37,-9,-3,-13,-7,15
1461663448078279,-15,2,4,-2,-2,6,-8,-19
1461663448078279,-22,-1,-5,2,2,-16,0,-14
1461663448079223,12,14,0,3,-1,0,2,7
1461663448079223,20,20,15,4,-1,0,-5,14
1461663448091269,-10,-4,-7,-5,0,-9,-1,-14
1461663448091269,-17,-3,-8,-5,-2,0,4,-11
1461663448100238,6,10,-3,4,-3,-3,0,11
1461663448100238,14,6,4,-4,-3,-4,-5,6
1461663448115285,-4,8,-20,-8,-5,-3,1,-13
1461663448115285,-17,3,8,11,10,10,2,-13
1461663448121291,8,18,28,4,6,-5,-2,13
1461663448121291,17,9,-2,11,3,2,-7,10
1461663448138269,-6,0,-10,-5,-3,-2,-3,-9
1461663448138269,-14,-4,3,-6,-5,1,-2,-9
1461663448139265,1,0,5,1,-4,-5,-4,2
1461663448139265,9,-3,6,-1,-1,-1,-4,4
1461663448151301,-6,0,10,-2,-2,-1,0,-10
1461663448151301,-7,4,-8,-5,-4,-3,1,-2
1461663448160308,2,-5,-6,-1,-2,-6,-1,13
1461663448160308,4,4,11,-3,-2,3,-1,4
1461663448176297,-2,-15,-7,3,-1,-5,2,-13
1461663448176297,-10,-12,1,-7,-3,-2,-2,-9
1461663448181294,-2,-12,-8,5,2,0,0,1
1461663448181294,9,9,10,-1,4,1,0,5
1461663448198305,-2,-5,-7,4,2,3,1,-1
1461663448198305,-14,-9,-5,-11,-10,-5,-1,-4
1461663448199306,2,4,1,3,1,1,-1,1
1461663448199306,6,-3,-5,-1,0,-3,0,2
1461663448211314,-2,-6,1,-5,-4,-5,-2,-5
1461663448211314,-3,4,1,-4,-1,-1,1,-1
1461663448220320,4,20,8,1,0,2,-2,1
1461663448220320,11,2,21,3,-4,-14,-2,0
1461663448234330,-17,-33,-38,-9,1,3,-3,-5
1461663448234330,-13,-14,-8,0,-3,15,2,-3
1461663448249341,2,-4,-11,-4,1,3,1,4
1461663448249341,1,1,7,0,-1,0,-2,-1
1461663448257359,1,14,17,2,-2,-4,1,-1
1461663448257359,-5,-3,-4,-1,-2,-11,-4,1
1461663448259368,7,8,14,1,-1,0,2,2
1461663448259368,-1,-22,-23,-6,-1,3,-2,-2
1461663448271396,-1,2,0,-5,-7,-6,-3,-1
1461663448271396,-3,4,8,1,4,1,1,1
1461663448280378,-2,-6,1,9,3,1,0,-2
1461663448280378,9,11,8,5,2,0,0,2
1461663448294413,-11,-27,-25,-14,-6,1,-1,-4
1461663448294413,0,4,3,-6,-3,-4,-2,-1
1461663448301390,0,0,-4,-6,-1,0,-1,-1
1461663448301390,3,9,2,-10,-4,-2,-3,-2
1461663448318400,-3,-1,10,10,-5,-1,-2,-5
1461663448318400,-1,8,4,2,4,0,1,1
1461663448319391,0,-11,-8,-3,-3,-4,-3,1
1461663448319391,-8,-20,-5,0,-1,1,-2,-2
1461663448331457,5,15,9,-11,-6,-1,-2,-3
1461663448331457,-9,-14,-19,-1,-5,-5,-5,-6
1461663448340405,-3,-6,-5,-3,-2,-2,-1,2
1461663448340405,6,7,1,-5,-2,0,1,1
1461663448354428,-2,-2,7,3,3,-1,-1,-8
1461663448354428,0,-2,4,4,1,-2,-2,-3
1461663448361480,-2,-5,-4,-3,0,0,-1,4
1461663448361480,3,-2,-3,1,-1,1,0,3
1461663448384439,2,8,5,1,2,1,2,-4
1461663448384439,-3,1,-2,2,0,2,-3,-2
1461663448393444,1,-6,-4,-8,-5,-1,-1,3
1461663448393444,0,-4,-7,0,0,-2,-2,1
1461663448394445,2,5,4,8,5,1,-1,-3
1461663448394445,-1,-1,-2,-10,-6,-2,0,0
1461663448400452,0,8,12,13,7,0,0,2
1461663448400452,-2,-10,-7,12,6,2,1,-1
1461663448414458,-1,0,1,-3,-2,-1,0,-3
1461663448414458,-6,-2,3,-9,-5,-3,-2,-2
1461663448421483,6,-1,-10,3,-3,-4,0,4
1461663448421483,-5,0,0,-5,-3,0,-1,0
1461663448437477,-1,5,2,-1,-3,0,-2,-8
1461663448437477,4,3,1,-2,-1,-1,0,0
1461663448439477,-8,-4,1,-5,-3,-2,0,2
1461663448439477,3,6,-2,-2,2,1,0,0
1461663448451500,-5,-7,-5,-4,-2,0,-4,-4
1461663448451500,0,3,-1,1,0,-1,-1,-1
1461663448460492,1,-2,-4,-2,0,0,-1,0
1461663448460492,-1,-4,-2,1,-1,-1,-1,-1
1461663448474561,-1,0,2,-1,-2,-3,-2,0
1461663448474561,-3,-1,0,4,-1,-2,-2,0
1461663448481565,-1,-2,-2,-3,-2,0,1,0
1461663448481565,0,1,-2,-6,-4,-1,-1,0
1461663448497583,-1,-3,-2,2,1,2,0,-1
1461663448497583,-1,3,2,2,-1,0,0,1
1461663448504522,-2,-5,-4,-4,-1,-2,-3,1
1461663448504522,5,2,0,0,-1,-1,-1,-3
1461663448511527,-2,-12,-6,-3,-2,-2,-1,-2
1461663448511527,-3,-4,-4,-6,0,1,0,2
1461663448520534,1,-1,8,13,5,1,0,1
1461663448520534,1,3,-1,-1,-1,-1,-1,-1
1461663448534556,4,9,-3,-12,-8,-4,-2,-6
1461663448534556,-8,-12,4,22,6,0,-1,-2
1461663448541607,2,-2,-2,-5,-3,-1,-1,0
1461663448541607,-4,-5,0,2,0,0,-1,-1
1461663448557618,-3,0,0,-2,0,0,0,-5
1461663448557618,0,2,-5,-7,-4,-2,0,0
1461663448564595,0,2,0,-4,-1,0,-1,2
1461663448564595,-1,-2,-3,2,-2,-1,-1,-1
1461663448579633,-2,1,1,-1,0,-1,-2,-2
1461663448579633,1,1,-2,-2,-2,-1,-1,-2
1461663448587580,-3,-6,-6,-4,-5,-2,-1,0
1461663448587580,0,2,-1,-2,1,2,0,-2
1461663448594606,-1,0,0,3,1,-1,-1,-3
1461663448594606,0,-1,-1,-1,0,0,1,2
1461663448601604,1,0,-2,-4,-4,0,-1,2
1461663448601604,-2,2,1,-4,-4,-3,-2,-2
1461663448617665,-2,-3,-2,4,3,1,-2,-3
1461663448617665,-2,-1,-1,-1,0,-1,-1,2
1461663448624623,0,-2,-1,-6,-3,-2,1,1
1461663448624623,0,-3,0,-3,-3,-3,-2,-3
1461663448640636,0,1,-6,-10,-3,-4,-2,-2
1461663448640636,-5,-3,7,19,3,3,1,1
1461663448642644,-2,-2,-3,-2,1,0,-1,1
1461663448642644,0,-1,2,1,0,0,0,-2
1461663448654629,-5,1,1,5,0,0,-3,-1
1461663448654629,-1,2,-3,-12,-4,-2,-1,0
1461663448661635,-4,-1,0,-1,-1,-3,-2,0
1461663448661635,0,-2,-4,1,0,0,2,-2
1461663448677677,0,-3,0,-4,-3,-3,-2,-4
1461663448677677,0,1,-1,-1,-1,-1,0,2
1461663448683652,-2,-6,-1,0,-1,1,-2,0
1461663448683652,2,-1,-2,-3,-2,-2,-3,-1
1461663448700676,-1,-3,0,3,-1,1,2,-3
1461663448700676,1,1,1,-1,-1,-2,-2,2
1461663448701663,1,2,0,-3,1,-1,1,-1
1461663448701663,-2,-5,-5,-1,-2,-1,-1,-3
1461663448715701,-2,-4,1,2,3,0,-2,-3
1461663448715701,-1,0,-2,3,3,-1,0,0
1461663448723678,0,0,-1,-4,-1,-2,-1,1
1461663448723678,1,3,2,1,0,-2,-1,-2
1461663448737702,-4,-9,-4,-3,-4,-1,-3,-2
1461663448737702,-2,-1,-4,-7,-1,-2,0,2
1461663448743691,-1,0,-1,0,-1,1,0,1
1461663448743691,-2,-3,-7,-9,-4,-1,-1,-2
1461663448760718,-2,0,5,5,0,-2,-2,-2
1461663448760718,-2,-1,1,-2,-2,0,-2,-1
1461663448761719,0,1,-1,3,-2,-1,1,1
1461663448761719,-1,-3,0,-2,-1,-1,0,-4
1461663448774772,0,0,-5,-7,-6,-3,-1,-2
1461663448774772,-1,-4,-4,-7,-4,-2,-1,2
1461663448781777,-2,0,-1,0,-1,-2,-1,-1
1461663448781777,3,-5,-5,0,0,2,0,2
1461663448797730,-1,-1,-2,1,2,2,1,0
1461663448797730,-2,1,2,5,1,1,1,1
1461663448803749,2,4,3,-3,0,2,2,-1
1461663448803749,2,0,1,0,2,0,0,-2
1461663448820748,1,5,3,2,0,0,-1,-1
1461663448820748,0,-4,-4,-1,-1,-1,-3,1
1461663448821747,-1,-7,-6,-5,-1,-1,-1,-2
1461663448821747,2,1,2,7,4,2,1,-1
1461663448834756,-2,0,0,-2,-1,-1,-2,0
1461663448834756,0,4,-1,-4,0,0,1,2
1461663448841760,-1,2,0,0,-4,-1,-1,0
1461663448841760,1,-1,0,-1,-3,-3,0,-1
1461663448856877,0,2,2,-1,0,-1,-1,0
1461663448856877,-1,1,-2,-3,-2,-2,-1,0
1461663448865900,0,0,1,-5,-2,-2,-2,-1
1461663448865900,-1,0,2,8,8,1,0,-1
1461663448880883,-1,-3,1,6,1,-2,0,0
1461663448880883,-1,0,0,0,1,0,-1,0
1461663448881883,-2,-2,-2,-2,0,1,1,0
1461663448881883,1,0,-2,-8,-3,-2,-2,-3
1461663448894956,-3,-5,-8,-8,-4,-1,-2,0
1461663448894956,-4,-1,3,-1,-3,-1,-2,0
1461663448901898,0,-1,1,1,1,2,1,0
1461663448901898,2,1,-4,0,-2,-2,-1,-2
1461663448917911,-1,2,0,1,-1,-1,-1,-1
1461663448917911,-2,-5,-4,-5,-1,-2,1,0
1461663448923914,1,-1,-2,-2,-1,-3,-1,1
1461663448923914,-2,-2,1,3,2,-1,-1,-2
1461663448939926,0,1,-2,-4,-3,-1,-1,0
1461663448939926,-4,-5,-2,0,0,0,0,0
1461663448946929,-1,2,1,2,-1,-2,-1,0
1461663448946929,2,-1,-1,-2,-1,0,-1,-2
1461663448954934,-4,-4,-3,-3,-3,-2,-3,-1
1461663448954934,-2,2,1,-1,0,-2,-1,2
1461663448961939,-1,-6,-3,-1,1,1,0,-1
1461663448961939,-3,-2,-3,-1,-1,0,-1,-2
1461663448976949,-2,-2,-1,-2,-2,-2,-2,-3
1461663448976949,2,1,3,7,2,0,1,2
1461663448983954,1,-1,-1,3,1,0,-2,-2
1461663448983954,0,-2,0,-3,-4,-2,-1,-2
1461663448999966,-3,-2,-4,-7,-6,-3,-1,0
1461663448999966,-2,3,-1,-6,-2,-2,-2,1
1461663449001967,0,-2,0,15,8,0,-2,-3
1461663449001967,0,-1,-1,1,-1,-1,-1,-3
1461663449014978,-3,-4,0,2,1,0,-1,2
1461663449014978,-3,-2,-5,-8,-8,-4,-1,-4
1461663449022024,1,-1,0,-6,-5,-3,-2,-6
1461663449022024,0,-6,-2,-3,-4,-4,-2,-4
1461663449037004,-1,-1,-4,-5,-5,-3,-3,2
1461663449037004,-1,0,-3,0,2,0,-1,-2
1461663449044014,1,3,6,6,1,-1,-1,-4
1461663449044014,-5,-8,-5,1,-4,-4,-2,-6
1461663449061043,-1,-3,-3,-3,-3,-1,-1,2
1461663449061043,-3,-3,-1,3,1,0,0,3
1461663449062012,-2,0,-2,-4,-5,-1,-2,-5
1461663449062012,1,5,0,-4,-1,0,-1,-2
1461663449075082,-3,-2,0,4,0,-3,-1,1
1461663449075082,-1,0,-1,0,-1,-1,-1,1
1461663449082058,-1,-1,-3,-6,-6,-3,-1,-4
1461663449082058,1,1,0,-2,4,2,1,0
1461663449097044,1,-2,0,7,2,-1,-2,2
1461663449097044,-2,-1,-1,2,0,0,-1,0
1461663449104048,1,-1,-1,0,-1,0,-2,-4
1461663449104048,-4,-8,-6,-4,-5,-1,-1,-2
1461663449122068,-1,1,-2,-6,-3,-1,-2,0
1461663449122068,-1,1,-1,-2,0,0,0,0
1461663449123070,-1,0,-2,-4,-1,-2,1,-1
1461663449123070,1,1,0,-2,-1,-3,-1,-2
1461663449134065,-1,-3,-1,-3,0,-3,-1,0
1461663449134065,-3,-2,5,6,2,1,1,-1
1461663449143083,-2,-1,-6,-1,2,1,1,-2
1461663449143083,1,2,0,-4,-1,0,-1,-4
1461663449157093,-5,-3,-1,0,-2,0,-1,0
1461663449157093,2,2,0,-4,-2,2,-2,1
1461663449164144,-3,-6,-2,0,-1,-1,-1,-3
1461663449164144,0,3,1,0,-1,-1,-3,-2
1461663449180155,-2,-1,-4,-5,-3,-1,-3,-1
1461663449180155,-2,0,1,2,0,0,-2,2
1461663449182124,1,3,1,-4,-4,-1,0,-1
1461663449182124,0,-3,-4,-6,-5,-3,-4,-1
1461663449194132,-1,-1,1,2,0,0,-1,0
1461663449194132,0,0,-3,0,-1,-1,0,0
1461663449203111,-1,-2,-3,-3,0,0,0,-1
1461663449203111,-1,-4,-4,-2,-3,0,-2,-2
1461663449217136,-3,-1,-2,-5,-3,-2,-1,-3
1461663449217136,-2,0,-2,1,-1,-2,-1,-1
1461663449224141,2,2,0,-2,-2,1,-1,-1
1461663449224141,-1,1,2,4,2,-1,-1,-1
1461663449240152,0,3,1,3,1,-3,-2,0
1461663449240152,-3,-8,-5,-1,1,-1,-1,1
1461663449242151,-1,-1,-1,0,1,-2,0,-1
1461663449242151,0,-3,-3,1,-1,-2,0,-2
1461663449254147,-2,0,-2,-5,-4,-1,-1,-2
1461663449254147,-1,-2,-2,-6,-4,-3,-1,0
1461663449263166,1,1,2,-2,4,1,0,-1
1461663449263166,-1,-2,-2,-3,1,2,1,-2
1461663449277175,-3,-3,2,7,1,-1,0,-1
1461663449277175,-3,3,3,0,-1,-1,0,-1
1461663449284167,-1,-5,-4,2,-2,-3,-2,-1
1461663449284167,0,-4,-2,-1,-1,0,0,-1
1461663449300191,-2,-3,-6,-6,-2,-1,-2,0
1461663449300191,0,0,1,-1,1,-1,-2,0
1461663449302193,0,0,1,0,-1,-3,-1,1
1461663449302193,0,0,1,0,0,-2,-1,-2
1461663449314227,0,0,-4,0,-2,-1,-1,-2
1461663449314227,-2,0,-1,-1,-3,-3,-2,-2
1461663449329230,0,1,-3,-2,-2,-1,0,-1
1461663449329230,1,4,3,0,0,0,-1,-1
1461663449337217,-3,-6,-2,-1,-1,-2,-3,-1
1461663449337217,0,0,-2,-1,0,1,0,2
1461663449344269,0,0,0,0,-1,0,-2,-1
1461663449344269,-2,-8,-4,-3,-4,-3,-3,-4
1461663449360369,-2,0,-3,-2,0,-1,1,0
1461663449360369,-2,-2,-3,-2,1,0,2,2
1461663449362370,-2,-2,-1,-2,-1,0,-2,-2
1461663449362370,-4,1,-1,0,-1,1,0,-2
1461663449374379,0,2,0,-2,-1,0,-1,1
1461663449374379,-1,-7,0,1,-2,0,-2,0
1461663449390331,1,1,-1,1,0,2,0,0
1461663449390331,3,1,-4,-3,-3,-4,-1,-5
1461663449397366,-2,-1,0,-3,-2,-1,-2,0
1461663449397366,-2,1,0,-1,-2,-1,-3,1
1461663449404354,-3,-3,-2,-3,-2,-1,-2,0
1461663449404354,1,0,-1,0,-2,0,0,0
1461663449419411,-3,-4,-1,-2,-2,-3,-2,-2
1461663449419411,1,1,-1,-1,0,-1,-1,-1
1461663449426415,1,-1,-2,1,-2,-2,-3,-1
1461663449426415,-2,-1,-2,-3,-2,-1,-2,-2
1461663449434377,-3,-5,-3,-2,-2,-1,0,0
1461663449434377,-2,1,0,-3,0,1,1,-1
1461663449443371,1,3,2,0,0,-1,1,-1
1461663449443371,1,-6,-1,1,2,0,-2,-2
1461663449457404,-1,-2,0,2,2,-1,-1,-1
1461663449457404,-1,-1,-3,-2,-1,-1,0,0
1461663449464409,0,0,-1,-1,0,-1,-2,1
1461663449464409,0,3,2,-1,-2,-2,-2,0
1461663449479436,0,-3,-2,1,-1,-1,-2,1
1461663449479436,-2,-1,2,-3,-2,-3,-3,-1
1461663449486424,1,2,-2,2,2,1,-1,-2
1461663449486424,0,-1,-1,4,-2,-3,-1,-2
1461663449494430,-1,0,-1,1,1,0,-1,0
1461663449494430,-1,1,0,-1,-2,-1,-1,0
1461663449503419,-1,-3,0,0,-2,-2,-1,-2
1461663449503419,0,1,-3,-3,-1,-1,-2,-1
1461663449517437,-6,-5,-2,-2,1,1,-1,-1
1461663449517437,-1,0,-2,-4,-2,0,-1,-1
1461663449524465,0,-2,1,-2,-2,-1,0,-2
1461663449524465,0,-1,-2,-5,0,-2,-1,-2
1461663449539452,-1,1,3,4,-1,-2,-2,0
1461663449539452,-3,-1,1,1,1,-2,-1,0
1461663449546481,-2,-2,-2,1,-1,0,0,-1
1461663449546481,1,1,-3,-4,-3,-1,2,-2
1461663449554462,-2,1,0,0,2,0,0,-1
1461663449554462,-2,-1,1,4,1,-2,-1,1
1461663449563496,-1,0,1,-1,0,0,1,-1
1461663449563496,-1,2,1,-3,-2,-1,-3,-2
1461663449585484,-2,-8,-5,-3,-2,0,1,0
1461663449585484,-1,-3,-2,0,0,1,-1,1
1461663449587485,-1,-2,1,0,0,0,-1,-1
1461663449587485,-2,-3,-7,-7,-4,-2,-1,-2
1461663449599496,0,3,2,0,1,-1,-2,0
1461663449599496,1,-2,-2,0,-2,0,2,2
1461663449606500,1,3,0,-2,-1,-3,1,0
1461663449606500,-2,-10,-8,-6,-1,0,-2,-4
1461663449622554,-3,2,8,8,1,0,-2,-3
1461663449622554,-1,-3,-3,-4,-1,-2,-2,1
1461663449624497,0,-2,0,-3,-2,-2,-1,0
1461663449624497,3,1,1,5,3,1,-1,0
1461663449637521,-1,3,-5,-10,-6,-2,-1,-2
1461663449637521,-1,-2,1,3,2,1,0,-2
1461663449644513,-4,-4,-2,-5,-5,-2,-1,-1
1461663449644513,-1,1,-2,2,-1,-1,-2,-3
1461663449659524,-3,-3,-1,-2,-3,-2,-2,-2
1461663449659524,3,5,6,-2,0,1,1,3
1461663449666529,-2,-5,-6,2,-1,-1,-2,-3
1461663449666529,3,1,1,-3,-2,-1,1,-1
1461663449682568,-4,-1,-3,-5,-2,-2,0,-2
1461663449682568,0,3,2,1,0,-3,1,0
1461663449684542,-2,-1,-1,0,2,2,1,1
1461663449684542,-2,-3,0,4,3,-2,-3,-5
1461663449697608,2,-1,-6,1,0,-2,-2,-3
1461663449697608,-3,-5,-9,-1,0,-2,-2,5
1461663449704555,1,5,9,2,0,-2,-2,1
1461663449704555,-2,4,10,1,-2,-3,-3,-4
1461663449719624,1,-5,-7,-8,-3,-2,-1,-2
1461663449719624,-5,0,13,4,-1,0,-2,-3
1461663449726679,-2,-7,-11,2,2,2,1,0
1461663449726679,0,-3,0,0,-1,-2,-1,-2
1461663449742646,-1,3,-2,-3,-2,-1,-2,-1
1461663449742646,-3,-10,-9,-5,-3,-2,-3,-1
1461663449745648,0,-4,0,-4,-1,-2,0,0
1461663449745648,0,2,1,3,-1,0,0,-3
1461663449757663,-2,-2,-6,-4,0,-1,0,-3
1461663449757663,-1,-1,1,0,0,-1,0,4
1461663449764649,-1,-3,-6,-1,0,-2,0,1
1461663449764649,0,-2,-2,6,3,-1,-1,-7
1461663449779717,0,1,1,3,1,0,0,-2
1461663449779717,-2,-1,-6,-9,-4,-1,1,1
1461663449786677,0,8,11,9,2,0,-1,1
1461663449786677,0,-8,-20,-9,-2,-1,-2,-4
1461663449802689,-3,-1,5,-4,-5,0,-4,-5
1461663449802689,2,6,17,10,5,2,1,3
1461663449804690,1,-2,-7,-4,-1,0,-1,3
1461663449804690,-2,-5,2,-5,-5,-2,-3,-5
1461663449817685,-1,8,7,-1,0,-2,-1,-1
1461663449817685,0,-1,-8,-4,-1,-1,1,-1
1461663449824692,-2,0,-6,-3,-4,0,1,0
1461663449824692,-2,-4,0,2,0,-1,-3,-4
1461663449839705,-1,2,-1,-3,-2,-1,0,0
1461663449839705,-5,-9,-16,-1,-1,-2,-2,0
1461663449846734,1,-2,-2,1,1,-2,0,-1
1461663449846734,1,-1,-3,-2,-3,-1,1,-1
1461663449863746,0,4,10,11,5,-1,1,1
1461663449863746,-2,3,1,-4,0,0,-1,1
1461663449864723,0,-1,-4,-6,-2,-1,-3,-1
1461663449864723,-2,1,8,2,-2,-2,-3,-2
1461663449877728,2,-1,-2,-5,-2,0,-1,0
1461663449877728,-2,-2,-5,2,-1,-1,-1,-3
1461663449883732,2,-1,-8,-15,-6,0,0,-2
1461663449883732,0,0,5,14,5,-1,-1,0
1461663449899743,-3,-8,-3,-3,-2,0,-2,0
1461663449899743,0,-2,5,-1,0,-2,-3,0
1461663449906763,1,-3,-5,-1,0,0,-1,-1
1461663449906763,2,4,6,-4,-4,-1,-2,-2
1461663449922774,-2,-1,2,-2,-4,-2,-1,0
1461663449922774,-4,-5,-12,-3,-2,0,0,-1
1461663449924776,-1,11,16,4,-1,1,-1,-2
1461663449924776,-2,-5,-10,-5,-2,0,-1,-2
1461663449945804,-1,-9,-12,0,1,-1,-1,2
1461663449945804,1,8,8,-3,-2,-3,-2,-1
1461663449946791,2,-4,2,2,-2,-1,0,-2
1461663449946791,-1,-2,-2,3,5,0,0,0
1461663449959814,-3,-1,-10,-7,-4,0,-1,0
1461663449959814,-3,0,-2,8,4,0,1,-1
1461663449967791,-2,-5,-1,-5,0,-1,0,-4
1461663449967791,-4,7,16,-8,-6,0,-1,-1
1461663449982811,-3,2,9,-1,-2,-2,-1,1
1461663449982811,2,2,-3,0,3,0,-1,-3
1461663449984820,0,0,-3,-1,0,-1,-2,-1
1461663449984820,-5,-9,-5,-1,-6,-5,-2,-2
1461663449996812,-2,-7,-10,8,6,1,0,3
1461663449996812,-2,0,2,-2,-4,-3,-1,-2
1461663450003834,1,0,1,2,1,-1,0,-3
1461663450003834,0,-4,-10,-8,-4,-1,-1,-2
1461663450019867,-2,0,-2,-3,-4,-2,-2,0
1461663450019867,-1,-6,-10,-3,-2,-2,-2,0
1461663450026871,-3,5,18,-2,-2,-1,-2,-4
1461663450026871,2,-4,-7,-5,-3,0,1,1
1461663450042902,-2,7,20,1,-5,-1,0,-3
1461663450042902,0,-5,-6,-3,0,1,-1,1
1461663450044902,0,1,-1,7,1,-2,1,-3
1461663450044902,-1,0,-11,-8,-4,-2,-4,-1
1461663450056952,-4,-8,-19,-7,-2,-1,-1,0
1461663450056952,-1,4,12,3,-3,0,-1,-2
1461663450063956,1,2,3,3,0,0,0,-2
1461663450063956,2,-2,4,-1,1,-1,-1,0
1461663450079962,3,-3,-9,4,5,1,0,4
1461663450079962,-3,-1,-7,-1,-1,-1,0,1
1461663450086965,-2,-6,-3,-1,-2,-2,-1,-1
1461663450086965,-1,-2,-7,-2,-1,-1,-1,-1
1461663450109981,-3,-6,2,-1,-4,-3,1,-2
1461663450109981,-1,4,0,-2,0,0,0,-1
1461663450111982,3,0,6,10,9,2,-1,-1
1461663450111982,-1,4,13,-4,-4,0,-1,-2
1461663450117001,-2,-1,-2,0,-1,-1,-2,1
1461663450117001,-1,4,13,2,-1,-1,1,-2
1461663450126027,-1,-3,-19,-6,-2,-3,0,-1
1461663450126027,3,1,-3,5,3,-2,2,-1
1461663450140015,-2,-3,-2,-2,-1,-2,-2,1
1461663450140015,-5,-11,-6,-1,-1,1,1,-2
1461663450147072,-3,-7,-13,-5,-1,0,-3,-3
1461663450147072,-1,-9,-18,-1,-3,-2,-1,-2
1461663450163077,-5,1,6,-3,0,-4,-3,-2
1461663450163077,3,15,33,-4,-4,-2,-1,-1
1461663450165083,-3,-6,-5,-2,-1,-1,0,-2
1461663450165083,3,1,2,2,2,0,-1,1
1461663450185034,3,-9,-28,-2,0,-1,-2,1
1461663450185034,-3,-5,-7,-6,-1,-2,-2,0
1461663450187035,-4,3,13,2,-1,0,0,-2
1461663450187035,0,-4,-9,-3,-1,-2,-2,-5
1461663450200044,2,3,3,-3,-3,0,-2,1
1461663450200044,-3,-10,-14,1,-1,-2,0,3
1461663450206049,-3,4,7,-3,-2,-2,-1,-2
1461663450206049,-1,-3,-5,-3,-4,-3,0,-3
1461663450223073,0,6,10,-1,-3,-1,0,-1
1461663450223073,-3,2,4,-1,-6,-3,-3,-1
1461663450224074,1,6,-1,8,9,3,3,-1
1461663450224074,-6,-8,0,11,4,-2,-1,-4
1461663450245089,-1,1,7,-6,-1,-2,-2,-1
1461663450245089,0,3,-10,-5,-4,0,1,0
1461663450248091,12,17,7,15,5,3,4,2
1461663450248091,-2,-9,4,1,-3,-3,-3,-3
1461663450260147,-13,-13,-7,-3,-4,-1,4,-1
1461663450260147,-4,-5,-8,-2,1,-1,-7,0
1461663450266151,0,12,12,-14,-8,2,0,-2
1461663450266151,-2,-26,-23,-1,1,4,6,-4
1461663450283106,0,-2,1,1,1,-2,-6,-1
1461663450283106,-3,-3,-3,3,2,-8,-8,-2
1461663450284117,2,-3,-3,-3,-1,-1,3,1
1461663450284117,3,12,8,-3,-2,1,6,2
1461663450296173,1,5,4,-5,-9,-4,-9,-2
1461663450296173,-7,-5,-17,-7,1,-2,-8,-6
1461663450305132,3,0,-4,-12,-6,-4,-4,2
1461663450305132,2,5,12,-1,1,3,6,0
1461663450320197,5,-5,-1,23,16,12,12,4
1461663450320197,-6,-3,11,-35,-21,-6,-3,-4
1461663450334152,-7,-12,-14,42,21,-5,-12,-4
1461663450334152,3,1,-4,-10,-10,-6,-8,-4
1461663450342210,1,8,12,15,5,-1,2,1
1461663450342210,-2,-6,-4,3,3,7,6,6
1461663450349210,3,-5,-9,-37,-18,-1,9,4
1461663450349210,4,0,6,15,3,-3,-19,-3
1461663450356189,0,-1,-10,-12,-3,-7,-12,-5
1461663450356189,-1,-2,7,27,11,9,2,2
1461663450366163,2,-6,-1,-7,-9,4,11,0
1461663450366163,-10,3,-12,-15,-7,-6,-17,-12
1461663450380234,-7,-3,6,-1,-2,-10,-9,-2
1461663450380234,5,2,0,-2,0,-6,3,2
1461663450386189,-4,-3,-8,-7,-4,1,27,1
1461663450386189,14,10,0,-13,1,4,0,5
1461663450402200,-4,-4,-1,10,2,6,-6,-3
1461663450402200,-3,4,0,-13,-2,-2,-12,-1
1461663450409205,3,-1,4,4,-7,-12,-19,-6
1461663450409205,-2,0,8,7,13,-2,15,0
1461663450416205,-1,3,-46,-51,-25,-5,-11,-4
1461663450416205,-3,5,54,92,35,9,35,1
1461663450425279,8,5,7,-19,-2,2,-19,-2
1461663450425279,14,27,5,-29,-19,-9,-13,-12
1461663450440240,-40,-47,-13,19,5,-2,-3,-17
1461663450440240,-6,9,-24,-34,-10,5,30,14
1461663450446243,-11,-25,-8,-12,-3,4,-8,4
1461663450446243,3,6,17,25,6,-3,2,-2
1461663450462256,17,14,17,18,5,5,0,10
1461663450462256,-3,2,-16,-1,4,0,-27,-15
1461663450469242,15,14,-5,-26,-10,-16,-8,0
1461663450469242,6,-12,6,14,1,-3,-23,3
1461663450476279,7,11,14,-2,-8,-2,9,-4
1461663450476279,-25,-22,-11,1,16,21,31,7
1461663450485261,5,7,1,0,7,8,29,15
1461663450485261,-1,-12,-20,-4,-12,-8,26,1
1461663450500257,4,-17,12,40,15,-6,-57,-1
1461663450500257,0,25,-4,-8,-19,-28,-33,-19
1461663450506276,-21,-14,-3,-17,-6,-1,-20,-18
1461663450506276,-4,11,-27,-30,-7,10,31,3
1461663450522312,7,29,36,9,5,16,60,19
1461663450522312,23,-3,17,-25,-16,-10,-21,11
1461663450529316,-19,-11,-39,46,16,3,-11,-11
1461663450529316,-11,-50,-3,48,18,1,11,2
1461663450545328,-6,26,20,14,14,4,-6,-1
1461663450545328,-1,21,-19,-15,-2,-2,-14,-22
1461663450547304,6,-2,15,-4,-28,-10,-10,-16
1461663450547304,-26,0,23,7,19,-6,-28,-1
1461663450559339,6,-25,-46,-28,1,17,58,36
1461663450559339,-3,-8,13,33,2,0,-8,2
1461663450566316,16,-5,11,26,17,-6,-2,-7
1461663450566316,-14,17,-20,-5,-11,-14,-43,-22
1461663450582375,-13,-21,-18,-56,-23,-11,-10,-19
1461663450582375,15,-40,8,8,-9,13,26,8
1461663450589333,-17,-23,-9,-33,3,27,59,13
1461663450589333,16,82,23,31,6,27,20,26
1461663450604360,-51,67,-23,24,29,-4,-1,-8
1461663450604360,-1,24,-21,-59,-33,-41,-56,-18
1461663450613367,-19,5,-8,20,2,-12,-39,-20
1461663450613367,3,-54,-15,-41,-27,-13,-63,-7
1461663450620343,22,-51,23,-7,-14,3,27,16
1461663450620343,22,-8,15,-13,-6,2,55,6
1461663450626363,2,29,-3,41,21,1,45,11
1461663450626363,-10,-19,15,-108,-41,-3,-22,-16
1461663450642393,-22,-57,-45,78,62,21,5,12
1461663450642393,27,-21,-31,17,5,-16,-60,-4
1461663450649423,-25,-105,42,-44,-19,13,30,9
1461663450649423,-6,13,11,77,37,24,45,19
1461663450665382,-10,-9,14,-36,-40,-43,-58,-39
1461663450665382,8,17,3,14,5,-1,-10,-10
1461663450667384,30,-62,-13,-86,-21,5,69,8
1461663450667384,-6,-32,-11,49,26,12,-1,6
1461663450688390,-13,81,-3,-33,-33,-30,-27,3
1461663450688390,-20,121,-14,-44,-20,8,8,2
1461663450689394,18,127,47,10,-18,-10,-33,-6
1461663450689394,30,98,9,20,40,18,25,-20
1461663450702402,16,127,28,-10,-16,-22,-53,15
1461663450702402,5,75,-30,1,8,9,11,5
1461663450709405,-24,10,6,-51,-27,-12,-25,-2
1461663450709405,-21,-68,-6,81,43,11,69,9
1461663450725475,32,-48,-14,-66,-4,50,107,18
1461663450725475,-40,-85,29,13,13,14,-42,-17
1461663450727476,-14,-19,-37,32,-19,-70,-112,-29
1461663450727476,19,-54,36,-22,-29,-47,-29,-6
1461663450740427,2,-34,7,43,6,0,-17,16
1461663450740427,2,-50,-29,-35,16,52,127,34
1461663450748434,0,22,-31,90,37,25,19,2
1461663450748434,-56,0,-8,-11,-30,-23,-106,-45
1461663450762445,-28,-18,-37,-77,-57,-45,-42,-34
1461663450762445,-2,-11,65,16,7,14,54,30
1461663450777469,-8,13,30,90,69,29,-21,-4
1461663450777469,30,-31,-24,-94,-31,-21,-10,-2
1461663450785481,25,-6,4,55,36,3,-8,1
1461663450785481,-17,5,-1,-23,-13,-13,5,10
1461663450788464,-4,11,-30,-45,-21,-8,-16,-8
1461663450788464,1,-21,7,-4,-8,10,16,-7
1461663450799469,12,-26,10,-10,-9,1,-4,4
1461663450799469,-7,3,15,-12,-3,-28,19,2
1461663450808507,10,-6,-8,21,9,19,7,-6
1461663450808507,27,-10,13,-95,-53,-13,-46,-11
1461663450822520,-27,11,-22,72,24,-22,-38,-41
1461663450822520,38,-3,-35,-57,16,19,25,35
1461663450829555,91,17,-20,7,-4,19,0,35
1461663450829555,-61,-5,19,-52,-54,-45,-16,-17
1461663450845517,12,-17,8,46,24,33,100,13
1461663450845517,-19,-8,39,95,35,17,-95,-24
1461663450847567,41,-3,-10,-48,-2,-17,-60,-33
1461663450847567,50,-26,24,46,23,3,19,37
1461663450859528,-16,-12,-6,-104,-42,14,53,17
1461663450859528,-12,2,75,99,69,26,46,3
1461663450868541,28,16,-18,-77,-15,3,11,-2
1461663450868541,0,-7,-18,-9,-16,-21,-55,-34
1461663450882539,-59,9,-4,-12,-8,-17,-5,23
1461663450882539,52,14,-38,-38,-32,9,-3,22
1461663450889550,-61,13,9,-3,-19,-22,-30,-6
1461663450889550,-21,-8,-39,3,-14,-16,26,-46
1461663450905562,69,4,54,29,33,24,-4,14
1461663450905562,-35,1,-26,-13,2,-4,20,10
1461663450907559,-2,-2,22,-21,-6,33,75,31
1461663450907559,19,-11,-94,-100,-35,-29,-54,-14
1461663450919566,6,1,70,81,60,24,11,-2
1461663450919566,-21,5,-54,-54,-49,-62,-85,-28
1461663450928586,-36,-2,78,-2,-34,-11,-1,-27
1461663450928586,27,-23,19,104,99,77,108,60
1461663450942661,35,12,6,-82,-36,-39,-51,4
1461663450942661,25,1,-73,11,-6,-5,-2,-4
1461663450948676,-47,-1,-6,-7,27,28,53,-4
1461663450948676,34,-8,24,82,44,54,-10,31
1461663450965736,11,-1,-16,20,-14,-49,-51,1
1461663450965736,-71,24,49,-16,-40,-32,5,-43
1461663450966677,-26,4,-56,-82,-21,24,13,-15
1461663450966677,71,-59,-90,42,-12,-46,-45,82
1461663450979745,0,11,70,34,49,13,-27,-9
1461663450979745,-68,12,-54,-113,-48,-3,-2,-63
1461663450986748,30,5,43,93,71,37,56,6
1461663450986748,16,-17,-22,-85,-32,2,57,56
1461663451002714,-8,6,-2,-3,-28,-7,-42,-12
1461663451002714,-30,20,-63,0,36,18,67,-70
1461663451008706,-60,-6,1,89,32,23,13,11
1461663451008706,17,-37,63,37,-7,-16,-78,49
1461663451025743,21,-7,-11,14,-9,-49,-78,-37
1461663451025743,63,24,66,57,20,13,32,-12
1461663451026720,-67,8,-39,-75,-23,-4,29,22
1461663451026720,40,-29,-26,12,3,2,95,38
1461663451038732,60,3,-16,-25,-16,9,-26,1
1461663451038732,-71,15,15,20,-19,-24,-70,-61
1461663451047791,90,3,-22,-50,-34,-37,-52,16
1461663451047791,-5,-10,-7,-81,-21,-11,-11,16
1461663451062803,-6,1,-56,-37,28,35,9,-39
1461663451062803,35,12,35,27,45,17,18,0
1461663451068765,-55,1,-10,-57,-68,-37,-33,-12
1461663451068765,17,-9,44,105,67,33,39,33
1461663451086763,-22,7,-44,-92,-31,23,74,9
1461663451086763,-44,-1,-35,43,22,10,-38,-29
1461663451086763,-4,-2,30,78,56,25,100,48
1461663451086763,14,-7,-9,-38,-2,15,-90,-9
1461663451098801,-9,-8,-12,22,-37,-65,-48,-8
1461663451098801,-60,8,31,7,-5,-9,-36,-10
1461663451107776,-39,-6,-8,-35,-39,-21,-47,-68
1461663451107776,54,-8,-7,-42,-34,-40,20,44
1461663451122787,-85,11,4,2,14,20,37,10
1461663451122787,23,-4,-47,-111,-66,-24,-16,-30
1461663451128851,127,4,20,84,15,15,-3,57
1461663451128851,-93,0,-5,-46,12,24,3,-49
1461663451144862,-6,-5,-31,-113,-28,-3,-15,-25
1461663451144862,-88,3,66,112,61,-5,-29,-36
1461663451145805,63,-1,31,-47,11,5,32,16
1461663451145805,63,-4,37,-46,-28,26,67,22
1461663451167821,-32,3,-32,15,7,2,-33,-2
1461663451167821,-9,8,-5,-58,-73,7,96,31
1461663451167821,65,-13,-36,38,34,-18,-114,-31
1461663451167821,-5,3,16,9,-16,-47,-27,15
1461663451190836,-2,1,10,-70,-39,-18,43,-2
1461663451190836,-12,-1,16,39,16,30,-24,-23
1461663451191838,41,-4,15,-49,-92,-52,-40,-18
1461663451191838,6,-2,-13,17,49,28,76,41
1461663451205849,-55,-6,7,-36,21,24,7,-26
1461663451205849,24,1,0,46,38,24,41,33
1461663451205849,-128,-2,-7,-52,-26,-11,5,-23
1461663451205849,37,-6,-62,-33,-13,-13,-77,-37
1461663451226873,30,10,2,-34,-67,-11,19,12
1461663451226873,-15,-1,50,56,91,42,7,11
1461663451227863,-32,-4,-25,-117,-14,-2,-30,-23
1461663451227863,-9,-12,15,-24,-17,7,44,6
1461663451243873,30,2,-3,2,6,74,64,16
1461663451243873,22,8,-33,-15,-30,-88,-127,-16
1461663451248888,-19,-6,-9,34,-27,-81,-55,30
1461663451248888,1,-6,19,4,21,41,-43,-2
1461663451264887,-3,6,69,-21,-77,-76,-25,-36
1461663451264887,9,1,-52,-26,29,36,89,43
1461663451265888,-29,-12,-4,40,54,10,-25,-11
1461663451265888,-25,-8,-23,-102,-33,-3,7,-23
1461663451303936,6,-3,6,93,46,54,31,-26
1461663451303936,-22,-1,78,14,-25,-8,-11,0
1461663451303936,54,-2,-28,-6,18,6,14,26
1461663451303936,6,1,63,32,20,11,21,6
1461663451305918,65,14,5,-19,15,15,18,27
1461663451305918,-37,4,-45,2,17,-14,-7,-25
1461663451308932,45,-16,-27,14,23,34,53,-6
1461663451308932,26,-3,7,-17,-35,3,-48,-31
1461663451323988,13,7,-8,24,3,-38,-12,36
1461663451323988,69,-8,-9,-47,-54,-56,-75,-10
1461663451331948,-98,-3,17,-22,2,25,10,5
1461663451331948,14,-2,-33,24,-8,16,37,2
1461663451346958,-38,-6,-9,16,15,-26,-4,-4
1461663451346958,30,11,1,-53,10,53,56,11
1461663451347947,-51,-7,-26,-59,-56,-54,-22,-11
1461663451347947,15,-3,16,122,68,-15,-23,11
1461663451362958,-68,0,-15,1,27,23,-15,-12
1461663451362958,49,-4,-12,-51,-26,-8,9,-12
1461663451368975,35,-3,28,56,18,24,38,27
1461663451368975,-39,7,-40,-64,-15,6,8,-2
1461663451383973,-20,-7,-6,52,21,1,-5,-21
1461663451383973,-61,-2,9,71,26,12,-11,-11
1461663451391997,35,-8,14,33,12,6,7,7
1461663451391997,23,-5,-1,-11,-21,-23,0,11
1461663451408008,54,4,-25,-28,-21,-5,-12,-3
1461663451408008,-36,2,-27,-74,-55,-41,-30,-30
1461663451414013,63,-10,5,15,16,-8,44,29
1461663451414013,-3,-1,12,-9,-12,10,-6,-10
1461663451423000,-22,-8,14,-11,2,24,-4,-1
1461663451423000,-30,-7,12,4,1,-84,14,6
1461663451429023,63,-9,1,-11,-4,78,9,5
1461663451429023,-3,1,2,3,14,70,50,20
1461663451444053,-19,-1,7,17,11,0,-12,-8
1461663451444053,-20,2,-16,-29,-32,-19,-30,-18
1461663451452022,-8,-3,-31,-73,-37,-67,-21,-12
1461663451452022,22,6,39,58,39,-25,18,17
1461663451467033,-75,1,-35,41,31,20,-7,-16
1461663451467033,-13,0,0,-37,-8,0,-6,4
1461663451468032,27,-90,51,93,66,13,-3,9
1461663451468032,-1,-34,-11,-8,-26,-7,-22,-7
1461663451483041,14,-122,-1,-34,-13,-18,-5,-11
1461663451483041,-5,18,-5,-27,-21,13,-7,-6
1461663451489063,-34,125,-31,-15,1,7,-7,-3
1461663451489063,-18,127,5,-11,-8,-24,-13,-1
1461663451504077,-39,31,-13,20,5,-16,12,-7
1461663451504077,52,11,-6,-21,-12,16,11,30
1461663451512063,-34,93,14,-3,-7,-5,-2,-11
1461663451512063,-53,77,-2,4,2,-8,42,-21
1461663451527088,45,68,5,-30,-8,-8,-15,36
1461663451527088,57,-6,9,9,-6,79,-43,31
1461663451528074,8,-121,2,2,-3,-13,-11,-25
1461663451528074,-82,-55,-12,-14,-1,-23,-3,-65
1461663451543087,-6,-117,9,-1,10,14,34,24
1461663451543087,47,-104,1,30,27,0,15,46
1461663451549149,14,-3,-7,3,-1,-15,-8,-13
1461663451549149,-59,36,-24,-114,-49,-19,-15,-55
1461663451564119,17,26,53,84,41,12,0,15
1461663451564119,50,-12,2,25,12,-12,-4,43
1461663451580130,4,43,-1,-10,-13,3,-7,-16
1461663451580130,-56,7,-31,-31,-14,-8,-18,-49
1461663451587178,10,-5,-17,-30,-19,-3,-6,10
1461663451587178,37,-23,19,3,2,-8,5,35
1461663451588118,-12,-3,-2,-6,4,18,-11,-14
1461663451588118,-36,-2,9,18,0,-17,-10,-23
1461663451610191,11,-68,0,-5,-6,-44,-4,23
1461663451610191,18,-103,-7,-6,-4,4,10,3
1461663451610191,-17,-44,-1,-8,-5,2,-17,-15
1461663451610191,-22,59,10,27,8,27,7,-11
1461663451624201,9,75,-1,-14,-9,5,13,10
1461663451624201,21,93,-1,-10,1,-18,2,13
1461663451632150,11,67,12,11,3,-25,4,-6
1461663451632150,-17,71,9,22,5,9,0,-12
1461663451647220,3,1,-3,-13,-4,8,2,12
1461663451647220,10,-54,-30,-25,-15,0,2,14
1461663451648169,2,-16,-16,5,5,10,-2,-12
1461663451648169,-21,-12,-12,14,4,-7,-7,-20
1461663451663171,6,27,6,-9,-7,10,0,5
1461663451663171,13,-6,20,16,8,-1,-7,12
1461663451669203,1,5,11,8,2,4,0,-4
1461663451669203,-5,5,5,0,2,-8,-11,-17
1461663451684202,-2,-1,0,5,-3,-6,1,3
1461663451684202,3,2,-5,-5,-5,2,1,15
1461663451691207,8,0,-1,-8,3,-14,-1,-4
1461663451691207,-14,-4,2,2,-4,-3,-1,-12
1461663451707259,6,20,-4,-8,-5,10,6,7
1461663451707259,-2,-19,1,3,3,1,1,8
1461663451708202,-1,-11,-2,-3,-6,-16,-2,-9
1461663451708202,-13,-11,-7,3,2,23,-2,-7
1461663451723214,3,7,-1,-8,2,5,1,5
1461663451723214,2,-8,1,2,1,1,-10,0
1461663451729275,2,8,7,-1,-2,-9,0,-3
1461663451729275,-9,-13,-23,-5,-5,-10,-3,-5
1461663451744286,-4,-3,-6,-9,-3,2,-1,0
1461663451744286,13,11,4,9,2,-1,4,6
1461663451751322,-7,-4,-13,-15,-8,0,-5,-7
1461663451751322,-6,8,20,18,4,-8,-3,-3
1461663451767333,2,9,-2,-5,-2,3,0,-1
1461663451767333,5,1,3,2,-2,-6,0,3
1461663451768334,-1,2,6,1,-1,13,1,-3
1461663451768334,-7,5,0,6,4,-5,0,-5
1461663451783345,-6,-1,-8,-6,1,-6,-3,-1
1461663451783345,5,3,1,-3,-3,4,0,2
1461663451789408,2,8,-2,0,-3,4,-1,-4
1461663451789408,-12,-25,-7,-8,-1,-6,-3,-6
1461663451805361,3,10,2,6,3,1,-2,1
1461663451805361,-1,-2,-4,-8,-3,5,-1,-1
1461663451811376,-12,-17,-7,-4,-5,-1,0,-3
1461663451811376,-6,12,7,-2,-2,-7,-5,-5
1461663451828394,6,7,2,0,0,-17,0,3
1461663451828394,4,-1,-3,-1,1,15,2,1
1461663451829393,2,0,-1,3,-3,-5,-1,-3
1461663451829393,-3,-1,-1,-4,-6,-5,-2,-1
1461663451843400,-7,-11,-7,-2,0,-10,-6,-2
1461663451843400,2,-4,1,-2,2,10,2,0
1461663451849450,1,-5,0,-4,4,-5,0,-3
1461663451849450,0,-11,0,5,-3,2,1,-1
1461663451864404,-2,-4,-3,0,-2,3,0,-2
1461663451864404,0,3,5,5,-1,-17,-4,-1
1461663451871406,2,0,1,0,-2,0,-3,-1
1461663451871406,-3,1,-3,-10,-4,-4,-2,0
1461663451887448,3,4,-4,-1,-3,1,-2,1
1461663451887448,-2,-1,1,-3,1,1,-1,-3
1461663451888460,5,5,10,9,5,7,1,0
1461663451888460,-2,-2,-1,-4,-2,-6,-3,0
1461663451903442,3,-9,-16,0,2,8,3,1
1461663451903442,-4,-10,-5,-2,-2,-1,2,0
1461663451909491,9,-6,-3,-1,-4,1,-1,-2
1461663451909491,-18,-10,8,1,1,-5,-4,-2
1461663451924470,2,17,4,-3,-1,7,3,1
1461663451924470,1,-2,-8,-3,-5,-3,-2,-4
1461663451931475,-4,2,-2,-1,-3,-2,-2,-2
1461663451931475,4,7,-1,1,0,0,2,0
1461663451947521,-6,-5,0,-1,0,1,1,-3
1461663451947521,4,5,4,-1,1,-4,1,1
1461663451948463,-8,-14,-6,0,-3,0,-2,-2
1461663451948463,0,1,-5,-9,-3,0,-1,0
1461663451963506,-1,-8,-5,-6,-1,-1,0,1
1461663451963506,4,-2,4,6,-1,-4,1,-2
1461663451969493,-2,-4,2,2,1,2,0,-1
1461663451969493,-2,7,5,2,6,2,0,0
1461663451984488,-4,-7,3,13,0,0,-3,-3
1461663451984488,4,0,-12,-10,2,0,-1,1
1461663451999527,-1,0,1,0,-4,-2,-2,-4
1461663451999527,8,2,-1,-1,-2,-3,-2,1
1461663452007519,5,10,3,-5,-1,2,-1,1
1461663452007519,-5,-15,0,1,-3,-3,-2,-3
1461663452008524,0,-11,-11,-4,-5,0,1,1
1461663452008524,-10,10,-5,-5,-4,-2,-3,-4
1461663452023539,-3,-1,3,1,-1,0,0,0
1461663452023539,7,6,1,2,-1,0,0,0
1461663452029587,1,1,-1,-3,-2,-3,-3,-1
1461663452029587,-3,-7,-4,-1,-3,-2,-1,0
1461663452044595,-1,-1,4,2,-1,-2,0,-1
1461663452044595,1,6,4,2,2,2,1,0
1461663452051534,-9,-13,-12,-7,-3,-2,-3,-5
1461663452051534,3,4,1,4,2,-3,-1,1
1461663452067558,-4,-9,-6,-5,-3,-1,0,-2
1461663452067558,5,1,1,1,1,-1,0,1
1461663452068546,-5,1,1,1,-1,-1,-2,-2
1461663452068546,-1,-4,-1,1,-1,0,-1,1
1461663452083559,0,-10,-5,-8,3,1,-1,-1
1461663452083559,2,1,1,4,2,-1,0,-2
1461663452089561,0,-5,-4,-3,-3,-2,0,-1
1461663452089561,-5,0,-2,-3,-3,-2,-1,-2
1461663452104571,2,8,4,2,-2,-1,0,-1
1461663452104571,-1,-16,-2,-3,-2,-2,0,-3
1461663452111635,-6,11,2,-2,-2,0,-2,-4
1461663452111635,-7,-11,-3,-3,-2,-1,-1,-1
1461663452127630,2,6,-1,2,0,0,-2,-1
1461663452127630,-3,-14,-6,-4,0,-1,-2,0
1461663452128593,-1,-7,-3,-1,-1,-2,-2,1
1461663452128593,2,3,3,1,-1,-1,0,0
1461663452143603,-4,0,1,2,0,-1,-1,-4
1461663452143603,-1,1,-3,-2,-1,-1,1,-3
1461663452149647,0,0,-1,-3,-1,0,0,0
1461663452149647,-2,-2,-1,1,-1,-4,-2,1
1461663452164615,-1,-3,0,7,4,0,1,-1
1461663452164615,0,2,1,-9,-8,-3,-3,-1
1461663452171644,-2,-2,-5,8,7,3,1,-1
1461663452171644,2,9,6,9,1,2,1,1
1461663452194636,-2,-6,-4,-1,0,-1,-1,-2
1461663452194636,1,2,2,2,3,-1,-1,-1
1461663452195637,-3,6,-1,-11,-6,-4,-2,2
1461663452195637,-4,-10,-8,0,-2,-2,-1,1
1461663452202641,1,-1,-2,-1,-2,-1,-1,-2
1461663452202641,1,9,2,1,-1,1,0,0
1461663452208646,-4,-5,-1,-2,-3,-1,-1,-1
1461663452208646,3,2,-4,-4,0,-2,-1,-1
1461663452225658,-5,-9,-1,-3,-3,0,-1,-2
1461663452225658,2,-2,-3,-1,2,-1,-1,-3
1461663452231661,0,-4,0,-1,-2,-3,-3,1
1461663452231661,-4,1,0,-2,0,1,0,1
1461663452246672,-1,1,-2,-2,-1,-2,-1,-2
1461663452246672,0,0,0,-1,0,0,0,-1
1461663452253679,-2,-2,2,1,-1,-1,-3,-5
1461663452253679,-2,-5,-5,-6,-3,-1,-3,1
1461663452277698,0,2,3,-1,0,0,0,6
1461663452277698,-1,2,-1,-2,-2,-1,-3,0
1461663452278709,-1,-1,2,2,1,-2,-1,-6
1461663452278709,1,3,5,-1,-1,-1,-1,2
1461663452283714,-3,-5,-3,1,-1,1,0,1
1461663452283714,-4,-9,-8,-3,-2,-1,0,-1
1461663452291763,1,-2,1,13,4,0,-1,-5
1461663452291763,-3,6,2,2,1,-1,0,-3
1461663452306719,4,1,-1,2,0,-3,-2,5
1461663452306719,-5,2,-2,-8,-3,-1,0,1
1461663452313723,-3,-3,-3,-5,-5,0,-4,-5
1461663452313723,3,5,1,-1,0,0,1,1
1461663452322728,-4,-7,0,3,2,-1,-1,2
1461663452322728,4,5,1,6,2,0,-1,-2
1461663452328732,-7,-14,-4,-5,-2,-2,-2,-6
1461663452328732,-8,-6,-3,-2,-2,-2,-2,-1
1461663452343799,1,-1,-4,-7,-4,-2,-1,3
1461663452343799,1,2,5,2,0,-2,-1,2
1461663452351748,2,3,-1,-5,-2,-3,0,3
1461663452351748,-4,-4,-2,-2,1,-1,1,-5
1461663452367758,-2,-6,-4,-6,-1,1,0,-6
1461663452367758,0,-5,-2,5,1,-1,-2,-4
1461663452373774,0,-1,-3,-1,-2,-1,-1,1
1461663452373774,-1,2,0,-3,-3,-1,0,1
1461663452382832,1,2,-5,-10,-5,-3,-1,-3
1461663452382832,2,4,3,-3,-2,-2,0,0
1461663452388831,-8,-11,-3,10,2,-3,-2,0
1461663452388831,2,4,3,3,0,-1,-2,0
1461663452405814,3,5,-2,6,2,1,0,-4
1461663452405814,4,0,-4,-4,-1,-2,-2,-1
1461663452411818,-2,7,-2,-10,-5,-1,-2,1
1461663452411818,-4,-9,-2,-5,-3,-4,0,-1
1461663452434824,2,5,2,-1,-1,1,-2,-4
1461663452434824,1,1,0,-2,-1,-2,-1,-2
1461663452435808,1,1,0,0,0,0,-1,1
1461663452435808,1,1,-2,1,0,-1,-1,0
1461663452451819,2,-4,-3,-3,-2,-1,1,-2
1461663452451819,-3,-5,-1,3,2,0,-2,0
1461663452451819,-2,-1,-2,-7,-3,-2,-3,2
1461663452451819,0,-2,-4,-1,-1,-1,-2,0
1461663452465828,-1,0,2,0,0,-1,0,-4
1461663452465828,-1,3,4,1,0,0,0,-2
1461663452471850,-4,-3,-4,-2,0,-1,-2,1
1461663452471850,1,-1,-2,-7,-4,-1,-1,0
1461663452486901,-3,0,1,5,2,-1,-1,-3
1461663452486901,-2,-8,-6,0,-2,1,1,-2
1461663452493905,3,3,1,-3,-3,-2,-1,1
1461663452493905,-5,-1,1,6,1,0,-1,-1
1461663452509872,0,-3,2,-1,-1,-2,-2,-2
1461663452509872,0,-2,-4,-3,-2,-2,-1,-3
1461663452510906,0,6,2,-3,-4,-1,-1,-6
1461663452510906,0,2,-1,-2,-2,-2,-1,4
1461663452531932,-3,-7,-11,-1,-1,-1,-1,6
1461663452531932,-1,0,-1,-1,-2,0,1,-1
1461663452532891,1,-1,-2,-3,-3,-1,0,-7
1461663452532891,0,2,2,0,2,0,-1,0
1461663452562910,1,4,2,-5,-5,-3,-1,5
1461663452562910,-3,-7,0,3,-1,-2,-1,0
1461663452563896,1,7,0,2,3,0,0,-7
1461663452563896,-1,1,2,1,-1,0,1,0
1461663452569900,-1,-5,-5,0,-1,0,-1,2
1461663452569900,0,3,-1,-7,-4,0,-2,-2
1461663452570901,-5,-10,-3,-7,-5,-2,-2,-7
1461663452570901,-1,-1,-2,-1,4,0,0,3
1461663452585912,-2,2,2,2,-1,-3,0,3
1461663452585912,2,0,2,-1,1,-2,-2,-2
1461663452591934,-2,-2,-1,5,1,-3,-2,-4
1461663452591934,-2,-1,1,-1,-1,0,-3,2
1461663452606927,-2,-5,-5,-5,-1,-1,-2,0
1461663452606927,0,4,-2,-1,-2,-1,0,-2
1461663452613990,-2,0,-2,-2,-2,-2,-2,-4
1461663452613990,-1,-2,-4,-3,-3,-2,-2,0
1461663452630002,2,5,5,5,2,0,0,1
1461663452630002,-1,-3,0,-1,-1,1,0,0
1461663452630957,-2,-5,-3,-5,-2,-2,-1,-3
1461663452630957,-2,-2,1,1,0,-1,0,0
1461663452645989,-1,-3,1,-1,0,2,-2,2
1461663452645989,2,1,-2,0,0,-1,-2,-2
1461663452651958,-5,-5,-3,-1,-2,-2,-1,-4
1461663452651958,-3,-7,-3,-1,0,-1,0,1
1461663452666987,2,1,2,0,-1,-1,-1,1
1461663452666987,3,-1,-2,0,-1,0,0,0
1461663452673990,-1,2,1,-1,-2,-1,-2,-2
1461663452673990,-5,-7,-2,-3,-2,-2,-2,-2
1461663452690044,2,-2,1,2,4,0,1,0
1461663452690044,-1,0,3,6,3,0,-1,-3
1461663452690992,-3,0,-2,-4,-2,-2,0,-2
1461663452690992,-2,-5,-3,3,-2,0,0,-1
1461663452706005,0,2,1,-5,-1,-1,0,1
1461663452706005,1,-1,-1,0,1,-1,-1,-2
1461663452712009,-3,1,-2,-4,-2,-3,-1,-1
1461663452712009,0,2,-2,-4,-4,-1,0,2
1461663452727011,0,1,1,-4,-3,-3,-1,-1
1461663452727011,-7,-4,1,5,3,2,1,-2
1461663452734021,0,-5,-4,-2,-2,-1,-1,-3
1461663452734021,-2,-2,-1,-2,-1,0,-2,0
1461663452750050,4,-2,-2,-3,-2,-1,-1,1
1461663452750050,3,5,2,-5,-3,-3,-4,-1
1461663452751030,-3,-2,-3,-1,-1,-1,-2,-1
1461663452751030,-3,-3,-4,-1,0,-1,-1,-1
1461663452766040,0,0,1,3,0,0,-2,-1
1461663452766040,-2,-2,-2,-3,-3,-1,-2,-1
1461663452772044,0,-1,-2,2,0,-2,-1,-3
1461663452772044,1,1,0,0,1,0,-1,-1
1461663452787055,-1,-4,-3,-1,-1,0,-1,0
1461663452787055,-2,-6,0,0,-3,-1,0,-3
1461663452794060,1,3,2,-1,0,0,-1,0
1461663452794060,1,-3,-4,-3,-2,-1,-2,2
1461663452810071,0,3,1,0,0,0,-1,-1
1461663452810071,-1,-2,-2,-2,0,-1,0,0
1461663452811071,-2,-1,-2,-1,-3,-2,-1,-1
1461663452811071,-3,-5,-3,-3,1,-1,1,1
1461663452826081,1,3,-1,0,0,0,-1,-1
1461663452826081,2,1,0,-6,-4,-1,-3,-1
1461663452832150,-5,-6,-1,5,0,-1,-3,-1
1461663452832150,3,7,4,1,0,1,-1,0
1461663452847129,-5,-3,-1,0,1,0,0,-2
1461663452847129,-1,-6,-4,-1,-2,-2,-1,-2
1461663452854113,-1,-3,-3,-3,-4,-2,-2,0
1461663452854113,-1,-2,-2,1,0,0,0,1
1461663452870125,0,-1,0,0,0,-3,0,0
1461663452870125,-2,1,-2,-3,-3,-2,0,-2
1461663452871115,-4,-1,-2,-5,-3,-1,-1,-1
1461663452871115,2,3,4,10,4,-1,-1,2
1461663452886126,0,0,-2,0,-2,-1,0,-1
1461663452886126,2,-3,-3,2,-1,0,-2,0
1461663452892159,-5,-7,-4,-2,-2,-1,-1,-3
1461663452892159,-2,4,0,-4,-2,-1,1,-1
1461663452915206,0,-2,-1,-2,0,-1,0,-3
1461663452915206,2,0,-3,-5,0,-3,0,-1
1461663452915206,-4,-3,0,-4,-3,-1,-2,-3
1461663452915206,-1,-2,-1,-3,-2,-1,0,0
1461663452929215,1,2,3,8,6,0,0,0
1461663452929215,-3,-6,-3,0,0,0,-1,-2
1461663452937165,-2,-3,-1,0,-2,-2,0,-1
1461663452937165,-1,0,-2,-4,-3,-2,0,0
1461663452946182,1,-4,-6,-5,-4,-2,-2,-1
1461663452946182,0,0,-1,1,0,0,0,-2
1461663452951184,-2,-1,-3,-1,0,-1,-3,-2
1461663452951184,-5,-2,-1,-1,-2,0,-2,-2
1461663452966240,1,-1,1,-1,-4,-1,1,-2
1461663452966240,3,7,4,3,2,-2,0,-2
1461663452974199,-12,-20,-8,-3,-2,-2,-1,-1
1461663452974199,-1,-1,-3,-1,-1,-1,0,-1
1461663452989255,-3,-2,-1,-3,-1,0,-1,-1
1461663452989255,0,0,-1,-1,-2,-2,-1,-3
1461663452997235,3,6,1,1,-1,-2,-1,0
1461663452997235,0,-2,-1,-2,0,-2,-2,-1
1461663453006216,2,0,0,-2,-2,-2,0,-3
1461663453006216,1,-4,-3,-2,-3,0,-1,-3
1461663453012215,-1,3,2,2,2,-1,-1,-1
1461663453012215,-1,5,3,-4,0,0,0,0
1461663453026243,0,-5,-3,0,0,-1,0,-1
1461663453026243,-2,-4,-1,0,-2,-1,-3,-2
1461663453034232,1,1,0,-2,-2,-1,-1,0
1461663453034232,-5,0,-1,0,-1,-2,-2,-2
1461663453050242,1,1,0,-3,0,0,0,-1
1461663453050242,-3,-1,0,1,0,-2,-2,-2
1461663453050242,-2,-1,-2,1,-2,-1,-2,-1
1461663453050242,1,-2,0,0,0,-1,0,1
1461663453065315,-2,-2,1,2,0,-2,-1,-2
1461663453065315,-3,-4,-6,-2,-5,-1,-1,-4
1461663453071269,5,9,1,-1,0,1,-1,1
1461663453071269,-4,-6,-3,-3,-2,-2,-2,-1
1461663453086325,1,-1,0,0,-1,-1,-2,-1
1461663453086325,-2,-5,-1,-2,-1,0,-1,-2
1461663453094330,-1,-1,-4,-3,-3,-1,0,-1
1461663453094330,1,2,1,0,0,-2,1,2
1461663453110298,2,2,-1,-1,-1,-1,0,0
1461663453110298,0,2,-2,-2,-2,-2,-2,0
1461663453110298,-7,-8,-3,-2,-2,-1,-2,-2
1461663453110298,-4,-8,0,0,-1,0,-1,0
1461663453125294,1,2,0,0,-1,-2,-1,-1
1461663453125294,3,5,1,-6,-1,-2,0,0
1461663453131299,0,-1,-2,2,0,-1,-1,0
1461663453131299,1,-4,-2,2,1,-1,-1,-1
1461663453146368,3,5,2,-1,-1,1,1,-2
1461663453146368,-3,-8,0,4,1,0,-1,-1
1461663453154314,-5,-5,-2,-3,-2,-3,-1,2
1461663453154314,1,3,1,-3,-1,0,0,0
1461663453169341,-4,3,1,0,1,-1,-2,-1
1461663453169341,2,0,-2,-4,-1,-3,-2,0
1461663453170342,0,2,0,-3,-1,-2,-2,0
1461663453170342,0,-2,-2,0,-2,-1,0,0
1461663453193341,0,-4,-4,-3,-1,-1,0,-3
1461663453193341,-2,-1,-1,1,-1,-2,1,-2
1461663453194365,-2,0,-1,-1,-2,-3,-1,-1
1461663453194365,1,6,3,1,-1,0,-2,0
1461663453206367,1,-4,-1,-1,-1,1,2,-1
1461663453206367,-4,-11,-4,-3,-5,-1,-2,-3
1461663453214373,3,3,0,1,0,1,-2,1
1461663453214373,-4,-1,-2,-1,-1,1,-1,-1
1461663453229384,-1,1,-2,0,1,-1,-1,-2
1461663453229384,1,7,3,-1,-1,-2,-1,-2
1461663453236384,-4,-5,-2,-2,-2,-1,0,0
1461663453236384,-1,0,0,-1,-1,-3,0,-2
1461663453245379,-2,-2,-2,0,-1,-2,-1,-1
1461663453245379,0,0,-2,-5,0,-1,0,-1
1461663453251384,4,3,-1,3,1,-1,-1,-1
1461663453251384,-1,-5,-2,-3,-4,-1,-1,0
1461663453266406,-4,-4,0,4,0,-1,0,0
1461663453266406,1,6,-1,0,-1,0,-1,-4
1461663453274400,-3,2,1,-3,-1,-1,0,0
1461663453274400,0,-2,0,2,-2,0,-1,1
1461663453289449,3,0,-3,-7,-5,-1,-3,-1
1461663453289449,-1,-3,0,-1,0,-2,-2,-1
1461663453296429,-1,4,1,2,2,0,-3,-2
1461663453296429,-2,-7,-4,-1,1,0,0,0
1461663453305422,2,3,-1,-2,-1,-1,0,-2
1461663453305422,5,9,-1,-4,-2,-1,-1,-1
1461663453311465,-11,-22,-6,-7,-5,-3,-1,-3
1461663453311465,3,3,3,5,2,-1,0,1
1461663453326451,-7,-3,-2,-2,-2,-3,-2,-1
1461663453326451,-6,-1,1,2,2,-1,0,-2
1461663453334441,3,3,0,-3,-1,-2,-2,0
1461663453334441,-4,3,-3,-2,1,-2,-2,-3
1461663453349510,4,-1,-1,2,-1,0,1,1
1461663453349510,-1,-4,-3,-5,-4,-3,-2,-2
1461663453356458,-1,-2,-1,1,-1,-1,-1,0
1461663453356458,-2,0,-2,-2,-1,0,-1,1
1461663453365464,4,7,-1,-1,-1,0,-1,1
1461663453365464,-5,-3,1,1,-1,-2,0,-1
1461663453371468,-8,-14,-7,-5,-3,-1,-1,-2
1461663453371468,-2,-1,-1,-2,-1,0,0,-2
1461663453388479,1,-1,0,1,1,0,-1,0
1461663453388479,-1,-4,-2,0,-2,-1,-2,-2
1461663453394484,2,4,1,-2,-1,-2,0,0
1461663453394484,-3,-3,-1,0,2,-1,0,-1
1461663453409494,1,2,-1,-4,0,-1,0,-2
1461663453409494,2,1,1,3,-1,-2,-3,-4
1461663453416500,-3,-3,0,0,0,-1,-1,-2
1461663453416500,1,-1,-2,-2,-1,-2,-1,1
1461663453432511,-1,-5,1,1,-1,0,1,-1
1461663453432511,1,-5,-3,0,3,-1,1,-3
1461663453433511,1,2,1,0,0,0,-1,1
1461663453433511,-3,-1,0,0,-1,-1,-2,0
1461663453446580,-1,-6,-1,0,1,0,-2,-2
1461663453446580,-2,1,-3,-3,-3,1,1,-2
1461663453454525,-4,-4,-1,-1,-1,-1,-1,0
1461663453454525,-2,-4,0,-1,-1,-3,0,0
1461663453469536,0,-2,-1,-1,0,0,0,1
1461663453469536,-8,-13,-3,-2,-2,0,-4,-1
1461663453476541,-2,5,0,-2,-2,0,2,-2
1461663453476541,-1,0,1,0,-1,0,0,1
1461663453492612,-3,-3,-1,0,-1,-3,-2,-2
1461663453492612,0,0,-1,-3,-1,-3,-1,-3
1461663453493563,4,6,4,6,-1,-2,-2,0
1461663453493563,2,0,-1,1,0,-1,-2,-2
1461663453506574,-5,-5,9,1,0,0,0,0
1461663453506574,2,3,-5,-3,-2,-2,0,0
1461663453514630,-1,-3,-8,-4,-2,0,-2,0
1461663453514630,2,5,-1,-3,-2,-2,0,-1
1461663453530597,1,-1,-3,-1,-1,-2,-2,0
1461663453530597,-3,-4,3,3,-2,-2,-2,-1
1461663453536596,-1,1,-1,-2,0,-2,-1,-2
1461663453536596,-1,-2,-3,-1,0,1,0,2
1461663453552625,2,0,-2,-2,0,0,1,-2
1461663453552625,-7,-2,-2,-1,-2,-1,-2,-4
1461663453553603,4,0,-3,-2,-2,0,-3,-1
1461663453553603,-2,0,0,-2,-3,0,-1,0
1461663453566607,-2,1,0,1,2,0,-2,-2
1461663453566607,3,3,0,-3,-1,-1,0,-2
1461663453574616,-9,-5,-2,0,1,-1,-3,-3
1461663453574616,0,1,-1,1,-1,-2,0,-1
1461663453589622,3,0,-3,-2,-2,-2,-2,-1
1461663453589622,-5,-2,0,-3,-2,0,-1,-3
1461663453596630,2,1,1,0,-1,-2,0,0
1461663453596630,-2,-8,-3,-5,-3,0,-1,1
1461663453612641,-3,5,1,7,0,-1,-2,1
1461663453612641,-5,-8,0,3,-1,-1,0,-4
1461663453612641,-3,-1,-3,-4,-5,-3,-2,-3
1461663453612641,-3,2,0,2,2,0,0,-1
1461663453626648,2,1,-5,-13,-7,-3,-1,1
1461663453626648,2,-6,0,0,-5,-3,-3,1
1461663453634653,3,4,6,9,6,2,1,1
1461663453634653,-1,-4,4,5,2,-2,-2,-1
1461663453657670,-1,-1,-1,-10,-1,-1,0,-1
1461663453657670,3,-1,-3,12,1,-4,-1,-2
1461663453657670,0,-1,-2,-6,-4,-2,-2,0
1461663453657670,-7,-5,-2,1,1,0,-1,-3
1461663453672680,-1,-2,-2,-4,-4,-1,-1,-2
1461663453672680,5,1,-3,-2,0,-1,-1,0
1461663453672680,-4,-9,-3,-2,-3,-2,-1,-1
1461663453672680,-3,1,-1,-1,0,-1,-1,1
1461663453686719,-3,-1,4,1,-1,-2,-4,-5
1461663453686719,-7,-5,-11,-10,-2,-1,-2,-5
1461663453694724,0,5,-1,10,4,-1,1,2
1461663453694724,1,1,-7,-12,-5,0,0,2
1461663453717713,-1,-2,-1,3,-1,-1,-1,-2
1461663453717713,4,2,-1,-11,-6,-2,-3,-2
1461663453717713,-1,-3,-1,1,1,-2,-1,-1
1461663453717713,-14,-15,3,12,5,-2,-1,-4
1461663453732748,3,11,-1,0,0,0,1,1
1461663453732748,-1,-3,9,11,5,2,0,-3
1461663453732748,-1,3,-1,-7,-8,-3,-5,-2
1461663453732748,4,6,-5,-6,2,0,-2,0
1461663453746793,-3,-7,-3,2,2,0,-1,1
1461663453746793,-8,-13,-7,-9,-4,-3,-4,-4
1461663453753754,1,3,-1,-8,-4,-2,0,-2
1461663453753754,0,2,3,2,-2,0,0,0
1461663453768750,-2,-8,0,1,1,0,-2,-3
1461663453768750,-2,8,-2,0,-1,1,0,-2
1461663453776759,3,-5,-5,-9,-3,-1,-2,3
1461663453776759,0,-3,2,4,-2,-1,-1,3
1461663453792770,0,1,0,12,3,0,4,-1
1461663453792770,-5,-1,1,-10,-6,-2,0,-3
1461663453792770,-5,-5,-3,4,1,-4,-6,-4
1461663453792770,0,3,-6,-9,-4,-4,-1,0
1461663453806778,-2,-4,-3,-1,-1,0,-2,-2
1461663453806778,3,-6,-2,4,5,-2,2,-1
1461663453813782,2,1,1,5,3,1,0,2
1461663453813782,0,2,-2,-8,-5,0,0,3
1461663453828851,-4,0,-1,-4,-4,-2,-2,-2
1461663453828851,2,-5,-2,-4,0,-1,-1,-4
1461663453836797,-2,6,4,-4,-5,-3,1,0
1461663453836797,5,-2,-1,-6,-1,-1,-1,0
1461663453851820,-4,3,1,6,1,0,-1,-1
1461663453851820,1,0,-3,0,2,1,-2,-1
1461663453852820,-2,-2,-1,-1,0,0,0,-1
1461663453852820,6,2,3,2,2,0,-1,-1
1461663453867820,1,-1,0,-4,-2,-2,-6,-2
1461663453867820,-1,0,0,-3,-3,-2,0,-2
1461663453874825,-4,-8,-10,-13,-2,-1,0,-1
1461663453874825,-9,-3,5,9,-3,0,-1,-1
1461663453888863,0,-3,-6,-2,1,-1,1,0
1461663453888863,0,5,6,13,1,-3,-4,-2
1461663453896856,0,5,11,5,3,1,-1,-1
1461663453896856,5,-1,-4,2,5,0,2,0
1461663453911867,1,-4,0,-1,-1,-5,-2,0
1461663453911867,-2,0,-8,-17,-11,-5,-6,-4
1461663453912869,3,3,8,20,13,2,0,1
1461663453912869,-6,-6,-10,-10,-2,-1,0,0
1461663453926860,-2,0,-1,0,-3,0,0,-2
1461663453926860,2,4,-8,-21,-10,-2,-1,-1
1461663453941909,-7,-1,5,15,-2,-7,-6,-4
1461663453941909,0,8,-3,-2,-1,-2,-3,0
1461663453965927,-1,-16,-8,5,5,-1,2,0
1461663453965927,4,9,3,1,-2,-2,1,-4
1461663453966888,3,-1,0,-5,-3,1,-3,1
1461663453966888,-9,1,-3,-1,0,-1,-3,-3
1461663453971904,1,0,7,-4,-5,-1,-1,1
1461663453971904,-5,-10,-4,8,3,0,-1,-4
1461663453972893,-3,-2,-8,-14,-8,0,6,-1
1461663453972893,2,-1,9,5,3,1,4,2
1461663453988903,4,-2,-11,-15,-3,-4,-17,-1
1461663453988903,-2,-5,4,10,4,-4,-6,-5
1461663453993966,-6,0,-8,-4,0,-3,-11,-2
1461663453993966,-4,-9,-10,-32,-14,-5,-1,0
1461663454008975,-4,6,6,6,1,0,4,-7
1461663454008975,5,3,0,0,-2,1,0,-1
1461663454016924,-9,-10,-6,-22,-3,2,5,-3
1461663454016924,-3,-1,0,14,1,1,3,-2
1461663454031992,2,7,-3,-4,1,0,2,2
1461663454031992,0,-4,-2,0,-4,-3,-1,0
1461663454032937,3,2,-4,-2,-2,-4,-2,-1
1461663454032937,5,5,6,0,-3,0,-4,-2
1461663454047967,2,9,1,-8,-3,5,5,2
1461663454047967,-7,-2,-1,14,6,6,16,-3
1461663454053974,-11,-22,-2,2,-2,-1,-2,0
1461663454053974,-4,0,-17,-14,-10,-9,2,3
1461663454068985,-1,0,10,16,7,-2,-8,1
1461663454068985,-4,-8,-6,-11,-5,-7,-26,-10
1461663454076968,-1,5,10,20,2,-8,-13,-2
1461663454076968,8,-1,-5,18,1,1,5,1
1461663454092037,3,-3,-5,-11,-1,-3,6,4
1461663454092037,-9,2,-11,-33,-12,-2,2,-8
1461663454092996,-5,-11,-13,-3,-2,1,-3,-2
1461663454092996,7,10,7,6,11,5,6,4
1461663454109005,-3,-5,8,-4,-2,-1,3,0
1461663454109005,9,0,13,58,24,9,8,6
1461663454114053,4,8,11,7,1,5,12,4
1461663454114053,-2,-4,-1,-1,-3,-4,-14,-6
1461663454129064,1,-1,-14,-9,-4,-7,-16,-7
1461663454129064,8,12,3,-22,-13,-6,8,-1
1461663454137042,-7,-11,-7,5,5,10,15,4
1461663454137042,0,10,0,-23,-8,6,27,5
1461663454152032,-1,3,2,6,-2,-16,-38,-18
1461663454152032,-2,-20,-13,-47,-23,-18,-9,2
1461663454159043,4,10,15,61,28,10,-2,-1
1461663454159043,-8,-16,-6,8,3,-5,-12,1
1461663454168032,-6,1,5,0,-6,-3,-4,-1
1461663454168032,-5,7,-13,-28,-15,-9,6,-8
1461663454174047,11,4,-1,7,5,2,-7,7
1461663454174047,1,8,-6,-30,-6,-3,-9,-10
1461663454189105,-17,-32,9,32,11,6,15,-1
1461663454189105,-3,15,5,14,3,9,-1,4
1461663454197063,-6,15,-14,-4,1,2,2,-6
1461663454197063,-6,-8,6,23,-4,1,7,4
1461663454212073,14,12,1,-44,-5,8,31,10
1461663454212073,-5,-25,-5,19,17,6,-8,1
1461663454219079,-7,8,-9,-25,-15,-9,-8,-3
1461663454219079,13,19,-1,-12,-7,3,5,-4
1461663454228074,6,-16,16,23,3,-1,1,5
1461663454228074,-18,-6,7,2,4,3,17,1
1461663454234077,6,-21,-18,-9,-5,-17,-42,-5
1461663454234077,-10,0,-5,-29,-15,-18,-21,-7
1461663454249100,0,20,-22,-2,1,1,-8,-8
1461663454249100,17,2,20,15,-12,6,45,18
1461663454257117,-24,-7,18,4,14,3,-1,-6
1461663454257117,-9,-37,19,29,-3,-17,-36,-3
1461663454271206,21,-38,2,38,32,21,35,16
1461663454271206,15,-66,-22,-40,-21,-13,-40,-7
1461663454279258,-7,-121,-33,-80,-35,-5,11,-5
1461663454279258,-16,48,66,77,29,10,-15,-12
1461663454288208,0,111,-6,5,8,17,20,2
1461663454288208,-12,127,-11,39,15,12,6,-7
1461663454294269,-9,61,-6,-18,-9,1,4,8
1461663454294269,17,-48,-20,-42,-4,8,22,-1
1461663454309277,3,-43,-11,-73,-27,-6,-7,1
1461663454309277,-14,-32,45,108,37,-7,2,-1
1461663454316284,39,-78,12,-6,-11,-3,6,23
1461663454316284,-14,-109,-32,14,21,24,54,28
1461663454331294,2,-122,15,-18,-28,-40,-107,-51
1461663454331294,-7,-5,-14,-33,-18,-34,-70,-29
1461663454339300,35,-28,42,31,9,-6,9,-10
1461663454339300,-40,-27,-9,-21,-10,-9,17,21
1461663454355252,0,78,-27,-16,10,24,83,34
1461663454355252,-25,74,-17,4,4,20,1,-14
1461663454355252,13,53,19,-24,-19,-16,13,-4
1461663454355252,25,45,-9,-9,0,15,-14,-6
1461663454369263,-15,-8,-8,19,9,-8,-60,-24
1461663454369263,18,-2,-25,-21,-1,-6,-14,-8
1461663454385275,-46,-78,1,27,18,31,38,-6
1461663454385275,32,8,12,-28,-18,-26,-8,11
1461663454391280,1,13,28,53,-2,-8,-6,7
1461663454391280,12,66,-39,-44,6,31,75,30
1461663454399317,-19,72,25,20,-8,17,80,34
1461663454399317,0,29,1,-35,-6,-9,-114,-46
1461663454415334,11,107,7,41,6,-43,-66,-35
1461663454415334,-1,7,8,-1,-11,-40,-8,-14
1461663454415334,-58,14,-17,-33,-13,5,50,-6
1461663454415334,-6,-23,-10,0,2,24,9,28
1461663454429335,-2,-61,-17,-43,-37,-20,-8,11
1461663454429335,32,-81,15,42,11,4,-39,-16
1461663454436340,25,-8,1,-42,-25,-23,-36,-6
1461663454436340,6,1,16,108,39,33,101,4
1461663454451330,-21,-42,-41,-128,-30,10,-2,-13
1461663454451330,1,-55,-27,29,32,-3,4,15
1461663454459357,-16,17,46,27,7,-19,-35,-5
1461663454459357,-9,2,-36,-25,-6,11,26,12
1461663454475337,-10,-27,-27,-41,7,28,10,3
1461663454475337,12,-50,67,92,57,36,0,8
1461663454475337,53,51,-56,-63,-35,-50,-48,-9
1461663454475337,-4,23,69,54,16,-22,48,15
1461663454489388,-57,-20,-2,9,8,29,40,2
1461663454489388,-28,-50,13,-68,-28,28,14,-26
1461663454496391,41,-4,-54,40,36,7,-63,19
1461663454496391,-6,29,4,-31,-44,-81,-88,-30
1461663454511375,31,11,6,28,8,12,68,52
1461663454511375,-16,-11,-28,-58,-38,-39,-45,-12
1461663454519369,2,-23,-10,-50,-22,10,14,-10
1461663454519369,-30,-5,-57,-113,-40,6,-45,-26
1461663454534381,13,3,49,59,69,28,84,-4
1461663454534381,14,7,8,9,-4,25,11,14
1461663454535383,-67,17,11,-44,-27,-17,-8,-12
1461663454535383,7,13,-19,45,69,49,64,11
1461663454550394,-2,0,-12,-49,-39,-9,-22,-14
1461663454550394,38,-23,83,83,14,1,13,40
1461663454556415,10,11,-5,85,12,-23,29,21
1461663454556415,-61,-9,-58,-64,-36,-21,-101,-30
1461663454573407,11,-7,19,93,71,35,-23,-28
1461663454573407,-4,-23,-15,1,-24,-65,-19,-7
1461663454579430,45,-3,33,-13,1,40,84,21
1461663454579430,6,-1,-37,-49,-22,12,-27,34
1461663454594482,41,14,-2,68,-15,-82,-91,-23
1461663454594482,-26,-8,-13,-21,-9,-1,-25,-21
1461663454595441,-31,6,-27,17,17,25,11,-12
1461663454595441,-13,5,36,-29,-34,24,125,10
1461663454609489,19,-11,-4,-9,-1,11,-8,41
1461663454609489,4,-14,-64,-41,-22,-27,-48,-35
1461663454616500,-37,-18,-32,-39,4,25,20,-8
1461663454616500,-23,5,39,65,38,7,-49,-28
1461663454631466,-22,16,5,13,-5,-54,23,7
1461663454631466,33,-11,-3,-17,14,15,-13,7
1461663454639472,38,10,-4,-99,-38,-19,-10,17
1461663454639472,13,13,-15,95,41,19,-20,4
1461663454654476,6,8,18,19,15,8,10,-37
1461663454654476,-36,-11,-1,-13,-12,-27,-14,-10
1461663454662528,32,5,-86,-98,-56,-8,-51,12
1461663454662528,-2,-4,108,106,73,46,19,29
1461663454669487,72,2,11,-74,-37,-51,-72,-13
1461663454669487,-80,-7,-10,-35,-19,-8,19,-28
1461663454684487,-12,0,108,26,10,17,32,0
1461663454684487,0,8,-63,19,9,-12,-15,-16
1461663454691548,-61,-6,-16,12,5,13,-17,5
1461663454691548,37,-12,25,10,-23,7,23,7
1461663454699555,53,5,35,-24,-5,39,82,28
1461663454699555,-29,10,-73,70,60,-10,-75,-20
1461663454714566,-25,3,29,21,3,-28,-21,15
1461663454714566,105,-13,-32,-110,-37,-11,31,33
1461663454715522,-104,0,4,5,6,-19,-94,-53
1461663454715522,-45,25,7,-5,-31,-3,22,-110
1461663454729574,-25,-1,-42,-62,-31,31,96,16
1461663454729574,51,-37,27,113,63,43,7,86
1461663454736522,29,9,21,89,34,-16,-29,31
1461663454736522,26,9,0,-128,-38,-16,111,-22
1461663454751547,10,12,29,20,-10,-5,-32,-6
1461663454751547,59,-37,-18,-59,3,12,2,95
1461663454759595,34,2,-29,-20,-14,-17,-93,-34
1461663454759595,-66,16,26,46,-23,-23,-19,-66
1461663454776574,-83,5,-5,98,39,32,85,-13
1461663454776574,59,-31,26,-56,-2,17,33,85
1461663454777581,-13,8,13,60,37,12,-24,-11
1461663454777581,-52,25,2,-12,0,4,-30,-22
1461663454789589,6,-5,-52,-59,-49,-62,-99,-51
1461663454789589,-3,-20,-57,-32,-45,-26,-43,32
1461663454796581,-101,8,9,90,59,-10,13,-49
1461663454796581,67,5,-6,-89,-47,-6,55,25
1461663454811636,39,-10,-15,-14,-14,26,-14,15
1461663454811636,-67,-10,10,54,20,-29,-28,12
1461663454819598,27,1,8,-28,2,7,21,7
1461663454819598,7,7,53,-48,-12,22,7,-44
1461663454834595,-80,-2,-35,25,41,17,33,16
1461663454834595,49,-19,-89,-104,-37,-14,-29,7
1461663454835592,34,6,1,93,29,16,19,-1
1461663454835592,-57,0,45,85,22,4,-5,-43
1461663454849718,63,-8,31,-43,-5,-1,-62,-4
1461663454849718,4,-10,23,16,15,23,89,21
1461663454856715,70,0,-10,-39,-5,6,-18,38
1461663454856715,6,11,-59,60,-41,-88,-90,-39
1461663454871727,24,-2,-30,-52,-61,-14,30,15
1461663454871727,3,-15,4,-72,1,65,4,10
1461663454879736,-62,-11,-14,83,28,-54,-48,-25
1461663454879736,25,16,30,-6,-3,-31,-5,14
1461663454894789,-97,-3,13,-7,-7,16,35,-12
1461663454894789,55,-9,-1,-43,-45,7,-4,2
1461663454895746,-7,2,37,-67,-22,23,14,-18
1461663454895746,-56,1,-47,-56,41,24,10,6
1461663454908744,77,-10,94,72,66,27,51,24
1461663454908744,-41,-2,30,24,44,-8,-33,1
1461663454916765,2,7,-45,6,-27,-4,-5,-27
1461663454916765,-54,-1,-40,-45,-25,-10,21,-46
1461663454931815,75,-12,-6,-89,-54,55,44,22
1461663454931815,14,-4,-9,87,-6,-32,-78,-30
1461663454938774,12,21,-9,-26,-27,-85,-36,5
1461663454938774,-14,-6,5,6,-1,-1,7,-12
1461663454970796,62,11,-22,-24,9,30,1,24
1461663454970796,-61,-11,19,6,-33,-45,-45,-22
1461663454971797,-78,6,-25,-10,-11,13,26,-7
1461663454971797,31,-3,53,-49,-52,-17,-15,5
1461663454973799,49,-3,-37,-66,32,48,61,4
1461663454973799,53,1,42,58,91,51,76,24
1461663454976801,-38,-6,-50,-95,-52,-33,-56,-15
1461663454976801,18,5,77,72,68,33,30,13
1461663454991858,-128,-7,14,-3,-1,-18,-32,7
1461663454991858,57,-6,-25,-93,-48,-18,-7,25
1461663454998863,-88,1,40,69,73,33,16,-28
1461663454998863,23,-11,-21,-66,-21,20,80,35
1461663455014874,73,-5,5,14,12,25,11,21
1461663455014874,-78,3,-43,12,-12,-60,-64,-3
1461663455015819,43,7,-21,-37,-42,-15,-10,-34
1461663455015819,24,-5,-23,-25,-28,-12,-18,15
1461663455028883,-17,-3,9,28,-3,-30,-37,-14
1461663455028883,-26,2,-4,-51,-54,-42,19,-13
1461663455036832,127,-2,-1,-59,-49,-4,-57,-13
1461663455036832,-33,0,84,69,66,26,55,15
1461663455051844,69,-10,-19,5,5,-7,-35,-26
1461663455051844,16,6,-66,-56,-27,19,-9,-2
1461663455058849,-80,-13,104,119,23,8,-10,-35
1461663455058849,117,7,52,-74,14,24,49,40
1461663455074866,-76,-11,37,33,34,-20,-37,1
1461663455074866,15,-1,-19,63,41,8,-5,-12
1461663455075867,61,4,-20,-47,-17,0,21,20
1461663455075867,-76,2,-64,-32,-47,-9,-23,-11
1461663455090875,10,-13,0,2,-21,1,55,-22
1461663455090875,33,8,25,-1,2,30,-23,-7
1461663455096877,-18,15,-41,-6,-11,-17,-6,35
1461663455096877,-11,5,-34,-11,-25,-49,-76,-24
1461663455111887,69,1,-25,-17,-23,-12,-15,44
1461663455111887,-76,-12,56,10,34,34,44,-48
1461663455118892,25,-15,-7,-9,-13,-22,0,14
1461663455118892,-31,0,-28,-65,-10,6,19,-3
1461663455133899,50,-2,36,79,44,0,-54,-7
1461663455133899,56,7,-15,6,-12,-3,32,45
1461663455141908,-67,-7,32,46,53,41,5,-35
1461663455141908,-45,-2,36,-13,-50,-22,-32,-10
1461663455150913,-11,-16,-40,-128,-87,-11,32,16
1461663455150913,56,4,17,127,127,53,34,24
1461663455156919,-67,3,-52,-73,5,-6,-13,-26
1461663455156919,6,4,-45,-72,-12,10,36,-13
1461663455171930,-111,-12,18,105,63,22,-4,15
1461663455171930,11,-2,5,-42,-55,-56,-69,22
1461663455178961,-33,15,-6,-9,-7,-3,49,12
1461663455178961,-15,-5,-53,19,15,32,74,1
1461663455193957,59,-4,1,-46,-26,-6,-10,11
1461663455193957,-53,4,-12,-14,-18,-38,-36,-30
1461663455201947,-37,-10,13,-8,-34,6,1,7
1461663455201947,56,3,27,25,9,-26,-53,1
1461663455210953,-36,-2,-15,-51,-16,-4,23,-14
1461663455210953,38,1,43,8,23,25,39,15
1461663455216957,87,-1,5,25,44,36,41,17
1461663455216957,-50,-1,-21,48,43,9,-33,-20
1461663455231985,22,-11,2,27,0,-25,-15,5
1461663455231985,21,-1,19,-13,-14,7,23,0
1461663455238989,6,3,11,-26,-22,0,1,-13
1461663455238989,38,-8,-1,-13,-22,-15,-14,-5
1461663455253984,-120,-4,-11,-15,-1,11,42,-2
1461663455253984,4,-10,-21,-24,-34,-13,-10,9
1461663455261989,-71,-6,-18,-12,-18,-59,-69,-12
1461663455261989,41,-3,7,38,18,58,-5,22
1461663455277000,71,3,0,-17,-24,-28,-8,2
1461663455277000,-92,5,-7,-18,12,31,78,2
1461663455278017,14,-6,6,-22,-36,-22,5,-26
1461663455278017,-49,1,-28,-11,5,-7,-52,-10
1461663455292164,-14,-13,-5,42,37,-2,-17,-1
1461663455292164,22,4,24,-33,-33,-3,2,2
1461663455299170,-38,3,-15,0,33,22,25,7
1461663455299170,-57,-1,60,41,-4,-12,-11,-13
1461663455314181,67,-3,-31,-36,10,-2,4,13
1461663455314181,7,2,-34,-1,-1,-2,-9,-3
1461663455322126,-15,2,18,25,31,20,10,-11
1461663455322126,12,0,-9,-43,-34,-12,6,0
1461663455337167,0,-6,-4,-10,-23,-9,-6,10
1461663455337167,12,-3,-2,6,4,14,4,15
1461663455338144,-28,1,-16,-21,-21,-13,-35,-27
1461663455338144,6,-4,-26,5,-8,-34,-18,0
1461663455352150,31,-11,5,-8,-12,-35,-34,1
1461663455352150,22,-7,-1,14,3,-11,-7,-8
1461663455359154,51,-3,5,10,18,39,34,12
1461663455359154,-18,6,-6,-10,-3,43,-22,9
1461663455376172,-42,-1,-3,16,-3,-2,24,8
1461663455376172,9,9,-18,-81,-39,-10,2,-18
1461663455382200,-52,1,3,36,56,5,12,3
1461663455382200,3,-18,12,17,20,-26,-8,-11
1461663455397196,26,-14,36,60,5,0,1,9
1461663455397196,-18,-49,-4,-8,-14,-7,-12,-20
1461663455398182,14,-35,-4,17,10,1,2,3
1461663455398182,-8,-128,-17,-21,-2,2,6,7
1461663455411205,-8,-107,-8,-42,-24,1,-14,-3
1461663455411205,1,84,15,48,20,2,-9,-12
1461663455419211,-7,79,2,-9,-5,3,4,-7
1461663455419211,7,109,0,6,4,3,22,33
1461663455434219,15,127,-11,-17,-10,7,19,6
1461663455434219,13,107,11,8,1,-32,10,1
1461663455442212,-28,38,-11,-11,-9,34,-3,-5
1461663455442212,22,63,0,9,3,-50,-58,10
1461663455457233,-85,78,-12,-18,-15,5,-41,-55
1461663455457233,-34,69,-9,9,-11,2,15,-44
1461663455458235,26,-51,1,1,-17,35,34,49
1461663455458235,51,-126,2,-27,20,2,17,43
1461663455471230,28,-45,-15,-35,27,8,13,-6
1461663455471230,-62,-16,12,62,32,-1,-9,-53
1461663455487302,3,-72,23,30,7,-17,-9,14
1461663455487302,31,-83,-4,-27,-1,8,-2,28
1461663455496250,1,-28,42,30,-3,-9,-7,-11
1461663455496250,-62,-82,-36,-12,-7,1,-16,-52
1461663455501253,25,-128,-41,-19,-12,-11,-6,22
1461663455501253,24,-128,-28,-10,-14,1,4,39
1461663455517268,-41,-88,-8,-21,-17,-5,-2,-25
1461663455517268,-33,5,17,-17,-20,-37,-39,-61
1461663455518267,30,19,23,5,4,5,12,34
1461663455518267,37,61,2,5,7,-33,-10,27
1461663455531276,-8,42,-5,6,-3,28,3,-28
1461663455531276,-65,60,9,4,3,2,11,-26
1461663455539281,14,-9,-13,-17,0,-11,10,33
1461663455539281,14,117,1,16,-5,-4,-7,17
1461663455554291,11,90,2,7,-6,-18,-6,-18
1461663455554291,-19,49,4,-12,6,13,8,-16
1461663455561296,2,-2,-9,-1,-2,-1,3,12
1461663455561296,28,-36,14,-2,-6,2,5,20
1461663455577310,1,-7,0,0,0,2,0,-13
1461663455577310,-31,16,21,5,10,15,9,-18
1461663455578310,13,23,22,10,8,-2,-1,18
1461663455578310,25,-8,4,8,4,14,-3,11
1461663455591378,-18,-13,-62,-11,-8,-8,-2,-17
1461663455591378,-31,-6,-48,-1,1,10,1,-17
1461663455599384,14,19,22,-8,-7,-4,-7,11
1461663455599384,19,20,25,9,-5,4,2,13
1461663455614363,-11,8,21,-5,-6,-6,-3,-11
1461663455614363,-17,-15,1,-5,-4,-5,1,-6
1461663455621367,13,0,-7,-6,-5,-6,-4,11
1461663455621367,10,-12,-12,1,4,-14,4,12
1461663455637352,-9,-32,-1,4,3,20,-4,-8
1461663455637352,-13,-15,-2,-4,-2,11,0,-6
1461663455638353,2,1,-8,-4,5,-4,-2,13
1461663455638353,4,-9,-1,4,3,7,5,7
1461663455651361,-2,-16,-2,2,-6,-21,-7,-13
1461663455651361,-7,-8,6,-4,-4,1,3,-9
1461663455659384,6,0,-8,-5,-1,2,0,7
1461663455659384,10,5,-2,9,4,8,6,8
1461663455674393,0,11,21,5,0,-6,-1,-6
1461663455674393,-16,-10,-12,-7,-1,2,-1,-7
1461663455681399,0,3,-12,-9,-5,-7,-3,5
1461663455681399,1,-17,-19,2,1,6,1,5
1461663455697431,1,6,-6,-10,-1,-5,-3,-4
1461663455697431,-8,20,27,4,-1,2,1,-7
1461663455698406,0,-10,-9,-3,-2,-4,-5,2
1461663455698406,8,10,10,18,9,6,2,6
1461663455711440,-1,8,5,-1,2,-2,0,-6
1461663455711440,-6,3,8,-2,-4,-4,0,-3
1461663455719419,-2,1,6,-3,-2,-1,0,2
1461663455719419,1,-3,-7,-10,-6,7,0,-1
1461663455734418,-5,-16,-16,-2,-5,-5,-1,-4
1461663455734418,-4,0,-7,-3,1,-2,-1,-4
1461663455741436,0,-3,0,-1,-2,-6,-2,0
1461663455741436,1,-5,-3,-4,-3,0,-1,-2
1461663455757434,-1,-7,7,6,5,6,2,0
1461663455757434,-5,-4,-4,-7,-2,1,0,-1
1461663455758435,0,7,-2,0,-1,0,-2,-2
1461663455758435,4,20,2,2,-1,-2,0,2
1461663455771443,-3,-8,-1,-2,-3,-4,-2,0
1461663455771443,-5,6,-5,-1,-6,1,-2,-2
1461663455779509,2,4,-1,-4,-1,-2,-1,0
1461663455779509,1,0,1,-3,-5,1,-3,-1
1461663455794519,8,2,-4,2,6,2,0,1
1461663455794519,-2,-4,11,-4,0,-3,-1,2
1461663455801465,-10,-5,-24,-20,-8,-4,-4,-6
1461663455801465,3,-1,5,4,-1,5,1,-1
1461663455817477,-5,3,7,-8,-7,-2,-3,-4
1461663455817477,3,2,7,18,8,2,2,3
1461663455818477,-3,1,4,-1,-1,-1,-3,-3
1461663455818477,-2,-8,-7,-6,-1,1,-1,-1
1461663455831594,1,-1,-7,-3,-6,-1,-2,-2
1461663455831594,-5,-10,-5,-10,-8,-5,-3,-1
1461663455839600,2,1,8,8,3,4,2,1
1461663455839600,2,-9,-1,-2,0,2,0,-2
1461663455854564,-3,-14,-7,1,-1,-4,-4,-3
1461663455854564,-1,3,-5,-1,-1,-2,-1,-1
1461663455861616,-6,-2,5,10,3,3,0,0
1461663455861616,4,0,-1,-6,-2,-3,0,0
1461663455877583,-3,4,0,-4,-3,-3,0,0
1461663455877583,-7,-5,-2,-3,0,-1,-2,-1
1461663455878606,4,0,-2,6,1,-2,2,1
1461663455878606,1,-5,-1,-2,0,0,-2,-1
1461663455891817,-4,-1,-6,-14,-10,-2,-3,-3
1461663455891817,-1,7,-3,4,4,3,-1,-1
1461663455899781,0,2,7,-9,-1,-1,0,0
1461663455899781,4,-5,-2,28,14,4,1,0
1461663455914777,3,-8,0,6,2,-1,-1,-1
1461663455914777,-3,-4,1,-3,-1,0,-4,-2
1461663455921810,1,-3,-8,0,0,-2,1,-2
1461663455921810,-3,-2,4,-14,-8,-4,-2,-4
1461663455937808,-4,-3,-3,-4,-4,-2,-3,-2
1461663455937808,-2,-1,-3,-3,-3,-2,1,1
1461663455937808,2,0,1,0,-2,1,0,0
1461663455937808,0,-1,-2,-5,-2,-3,-1,-3
1461663455951801,-2,-1,-3,5,0,-5,-16,-2
1461663455951801,-4,0,0,-3,-4,2,7,1
1461663455958822,-1,-2,-9,-3,0,1,-1,0
1461663455958822,-2,-7,4,4,1,1,5,-2
1461663455973829,-3,-2,-3,-11,-5,2,16,-1
1461663455973829,-4,-2,7,18,10,-3,-10,2
1461663455981863,1,1,3,-1,-5,-3,-2,-1
1461663455981863,1,-4,-5,-8,2,-1,-6,-2
1461663455997838,-1,0,-1,14,6,-3,-5,-1
1461663455997838,-3,-1,0,1,-4,-2,2,0
1461663455997838,-1,1,3,5,4,1,0,0
1461663455997838,3,1,-1,-9,-8,-6,-6,-2
1461663456011873,-4,-3,-6,-7,-5,-2,-1,-4
1461663456011873,-2,-3,-11,-9,-3,2,0,0
1461663456018878,0,-1,1,1,-1,-2,-4,-2
1461663456018878,3,0,0,0,-1,-1,1,-2
1461663456033868,-1,-3,-2,-2,-1,0,1,-1
1461663456033868,-3,0,1,-2,-4,-4,0,-2
1461663456041930,0,-3,3,0,-1,-1,0,-2
1461663456041930,3,0,-1,-1,-1,-1,1,1
1461663456056891,-1,-1,-5,0,0,1,1,0
1461663456056891,-7,0,-11,-29,-15,-6,-4,-1
1461663456064941,0,-1,4,25,15,3,3,2
1461663456064941,0,1,1,-11,-3,-1,2,-2
1461663456071888,-1,0,9,25,10,0,-1,-1
1461663456071888,-3,-1,-4,-9,-7,-3,-2,-1
1461663456078894,2,0,11,26,18,5,2,1
1461663456078894,0,-3,-3,1,-1,1,0,-1
1461663456093973,-1,-1,-3,-7,-6,-3,-1,-2
1461663456093973,2,2,0,-1,-1,0,0,-1
1461663456101936,-2,-1,-4,-10,-9,-4,-2,-1
1461663456101936,-1,-2,0,5,0,-2,-3,-2
1461663456116946,-2,-1,-1,-9,-4,-2,0,-2
1461663456116946,-4,0,0,4,1,-1,-1,1
1461663456124950,2,1,-4,-9,-5,-2,-1,-2
1461663456124950,-2,-3,-1,-1,-1,0,0,-2
1461663456139939,-2,-3,-2,-6,-6,-2,-1,-3
1461663456139939,-4,-5,1,4,5,-1,-2,1
1461663456140961,0,-2,-1,-4,-5,0,-3,-1
1461663456140961,2,3,-4,-11,-5,-1,-1,0
1461663456162976,-6,-11,-5,-1,-2,-1,-4,-1
1461663456162976,-5,-4,3,8,5,2,0,0
1461663456162976,1,1,-2,-11,-5,1,0,0
1461663456162976,1,-2,-2,-5,-8,-2,-2,-2
1461663456176978,0,1,2,14,12,3,1,-2
1461663456176978,-3,-1,-1,-4,-3,-1,0,-1
1461663456191987,-3,-1,1,1,-1,-3,-1,-2
1461663456191987,0,0,-5,-5,-1,-2,0,0
1461663456199994,-2,-3,-3,-11,-9,-3,-2,-3
1461663456199994,-1,-2,-4,2,0,-3,0,1
1461663456200979,1,3,-2,-6,-2,-2,1,0
1461663456200979,-1,-2,4,4,2,-1,-1,-3
1461663456213987,-2,1,1,-1,-1,1,-1,-2
1461663456213987,-1,1,2,5,3,2,0,-1
1461663456222009,1,-3,-5,-8,-4,-1,0,0
1461663456222009,0,-2,0,0,2,1,0,-1
1461663456237015,-2,1,2,0,-2,-3,-2,0
1461663456237015,-2,0,-1,-7,-4,-4,-1,0
1461663456245021,1,-1,-7,-13,-2,-3,-1,0
1461663456245021,0,0,11,32,11,1,0,0
1461663456260031,-2,0,0,-4,-3,-3,-4,-1
1461663456260031,-2,-6,3,-6,-5,-2,0,0
1461663456261032,0,1,-6,16,10,1,-1,1
1461663456261032,-2,-5,-8,-11,-4,-1,-1,-2
1461663456274042,-1,-1,-1,2,-3,0,-1,0
1461663456274042,0,1,-5,-9,-5,-4,-4,0
1461663456282094,0,-2,2,-1,-3,-1,0,-2
1461663456282094,0,-1,-1,0,2,1,4,-1
1461663456298063,0,-2,-7,-8,-4,-4,-1,-2
1461663456298063,-2,0,-3,0,-1,0,-2,-2
1461663456305064,1,0,3,-2,-2,-1,-1,-3
1461663456305064,2,3,0,1,0,-1,1,-1
1461663456320074,-1,-3,-5,-7,-2,0,-1,-2
1461663456320074,-3,-1,-3,4,1,0,-1,1
1461663456321075,2,-3,0,4,1,1,-2,0
1461663456321075,3,4,-3,-10,-4,-1,-2,-2
1461663456334073,-2,-1,1,1,-1,-3,2,-1
1461663456334073,-2,2,3,0,2,-1,-3,0
1461663456342136,-1,-1,4,13,8,0,-2,1
1461663456342136,2,0,0,-1,-1,-1,-1,-3
