timestamp,emg1,emg2,emg3,emg4,emg5,emg6,emg7,emg8
1461663804848012,-3,-1,-2,-2,0,-2,0,-1
1461663804848012,-2,0,2,-4,-3,-3,0,-1
1461663804850000,-4,-11,-4,-4,-1,-2,-3,-3
1461663804850000,-2,7,1,0,-1,0,1,-2
1461663804862011,3,0,0,1,-1,0,0,0
1461663804862011,0,-2,-1,0,-3,0,0,-2
1461663804871015,1,3,0,-1,1,0,0,-2
1461663804871015,0,-3,-2,1,1,0,-2,0
1461663804885037,-4,-11,-5,-4,-2,0,-1,-2
1461663804885037,-1,3,1,0,-1,-1,1,-1
1461663804892028,-1,-4,-4,-1,-2,-1,-1,-1
1461663804892028,0,2,-1,1,-1,-1,0,1
1461663804908668,-3,-3,-3,-5,-3,-3,-1,-1
1461663804908668,0,1,6,7,3,1,0,-4
1461663804910182,1,3,1,2,-1,0,0,1
1461663804910182,-1,2,1,1,-2,0,0,3
1461663804921710,-1,-4,-2,-1,-1,-1,-1,-2
1461663804921710,6,2,-5,-6,0,-2,-3,-8
1461663804931186,7,-2,2,-1,0,1,1,-1
1461663804931186,-1,3,5,5,5,1,3,11
1461663804953202,-15,2,-1,-1,-3,-3,-3,3
1461663804953202,1,-9,-8,-9,-5,-3,-3,-12
1461663804954703,7,2,2,5,2,-1,1,-7
1461663804954703,3,-2,2,1,4,1,2,6
1461663804968213,-12,2,-4,-2,-4,-2,-2,7
1461663804968213,-1,-13,-4,-4,-6,-3,-4,-10
1461663804969714,7,-1,-4,-3,-2,0,-1,-5
1461663804969714,-2,1,3,2,0,2,2,5
1461663804981719,-12,-2,-1,0,-2,-1,-4,3
1461663804981719,2,-2,-2,-1,-1,-1,-2,-9
1461663804990725,6,3,2,1,0,0,-1,-8
1461663804990725,-4,1,-1,0,0,0,1,6
1461663805005236,-10,-3,-3,-5,-3,-3,-3,4
1461663805005236,3,2,-4,-6,-5,-3,-4,-7
1461663805011740,5,-1,0,-2,0,-1,-1,-5
1461663805011740,-1,2,2,4,5,3,3,5
1461663805028252,-12,-8,-2,-1,-1,-1,-1,4
1461663805028252,0,-3,-2,-1,-2,-1,-3,-7
1461663805029753,10,7,2,1,0,-1,0,-5
1461663805029753,-1,-2,-2,-2,0,0,-2,4
1461663805041760,-11,-7,-2,0,-3,-3,-1,3
1461663805041760,0,0,0,-1,-1,-2,0,-6
1461663805050768,4,0,1,0,-1,-1,0,-4
1461663805050768,1,-3,-4,-3,0,-1,1,5
1461663805064777,-3,3,-2,-1,0,0,-2,4
1461663805064777,5,1,-2,0,-2,-1,-3,-5
1461663805071785,1,-2,-1,-2,-2,-2,1,-7
1461663805071785,0,4,2,1,1,1,0,4
1461663805088297,-5,-1,-1,-2,-5,-3,-1,6
1461663805088297,-1,-2,-1,2,0,-1,-1,-5
1461663805089795,7,-2,-1,-1,-1,-1,-1,-11
1461663805089795,-2,0,1,-1,2,2,2,2
1461663805101817,-11,1,-2,-2,0,0,-1,10
1461663805101817,0,-3,-2,-4,-2,-3,-2,-1
1461663805110822,4,3,0,-3,-4,-3,-1,-7
1461663805110822,-1,-4,-3,2,0,1,0,-2
1461663805124835,-6,-2,-1,2,1,1,-1,3
1461663805124835,-2,-3,-3,-1,-1,-2,0,-2
1461663805131883,4,1,-1,1,-1,0,-1,-8
1461663805131883,-1,1,0,-4,-4,-1,0,0
1461663805147395,-4,3,0,-1,-2,-1,-2,8
1461663805147395,1,4,2,3,-1,-1,-2,-3
1461663805155858,4,0,-3,-3,-1,-1,-2,-10
1461663805155858,-1,-4,-1,-2,-1,-2,1,2
1461663805161870,-4,-2,-3,-1,1,-2,-1,9
1461663805161870,1,2,0,-1,1,0,-2,-2
1461663805170859,2,1,-1,-1,-2,-2,0,-8
1461663805170859,-2,1,2,-3,-3,-2,0,-1
1461663805184887,-6,-7,-5,-3,-3,0,0,7
1461663805184887,1,-7,-6,-6,-4,-2,0,-3
1461663805191881,5,2,1,3,3,1,-2,-5
1461663805191881,-5,2,2,6,1,1,-2,-1
1461663805208380,2,3,-1,-3,-3,-2,1,4
1461663805208380,1,-1,-4,-3,-2,-2,-2,-4
1461663805209882,1,-5,-4,-1,-1,0,1,-6
1461663805209882,-4,-4,0,0,1,-1,-2,0
1461663805221929,-1,0,1,0,-2,-1,-3,3
1461663805221929,-3,-3,-1,-3,-2,-1,-1,-4
1461663805230396,0,1,-1,0,0,-2,0,-4
1461663805230396,-2,-4,-1,0,0,0,-1,3
1461663805244615,-3,-3,-2,0,-1,-3,-3,1
1461663805244615,-1,-2,-1,0,1,-2,-1,-3
1461663805251639,-1,-1,-4,-4,-2,-1,-2,-3
1461663805251639,-2,0,-2,-1,0,1,-1,2
1461663805267623,0,-4,0,-1,1,1,-1,0
1461663805267623,-3,0,2,2,0,1,-1,-3
1461663805269594,-1,-1,1,-2,-2,0,0,-1
1461663805269594,0,0,-3,-8,-3,-2,-1,1
1461663805281631,-1,-4,-3,4,0,-3,0,-1
1461663805281631,4,7,0,-1,-2,0,0,-1
1461663805290616,-8,-10,-1,1,0,0,0,-2
1461663805290616,-2,-1,-1,1,-2,-1,-2,1
1461663805304681,-3,-6,-2,-6,-4,-2,-3,-3
1461663805304681,2,3,1,2,0,-1,-2,-1
1461663805311652,1,1,-2,-3,-2,0,0,0
1461663805311652,-2,1,-2,-2,-1,-2,1,0
1461663805327664,-5,-4,-1,-4,-2,-1,-1,-3
1461663805327664,1,-6,-4,-2,-2,-2,-1,-2
1461663805329637,0,-1,0,-1,-1,0,-1,2
1461663805329637,-2,-1,-2,-2,-2,-1,-2,0
1461663805341660,0,2,-3,-2,0,1,-2,-5
1461663805341660,0,-1,1,0,1,-1,0,-2
1461663805350667,-3,-2,3,1,1,-1,-1,5
1461663805350667,-4,-2,-3,-1,-2,-2,-1,-1
1461663805364675,-2,-1,-2,-3,-5,-3,0,-7
1461663805364675,3,-1,-1,-3,-2,-1,0,1
1461663805371725,-5,-4,-2,-1,2,0,0,4
1461663805371725,-2,1,-1,-4,-1,-2,0,1
1461663805387692,1,-1,2,6,1,-1,0,-5
1461663805387692,0,-2,0,1,0,1,-2,-1
1461663805389681,-2,-1,1,1,0,0,1,5
1461663805389681,-4,1,1,-3,-1,-1,0,0
1461663805401749,1,5,0,-2,-2,2,0,-7
1461663805401749,-2,-9,-3,-1,0,0,-1,-1
1461663805410695,-4,-1,-3,-3,-3,-2,-1,3
1461663805410695,-6,-7,0,4,0,1,-1,0
1461663805424704,2,2,-3,-1,0,-2,-2,-4
1461663805424704,1,-2,-1,-4,0,0,1,-2
1461663805431724,-2,-1,-1,-1,0,0,0,2
1461663805431724,-1,-8,-2,0,1,-1,-1,2
1461663805447778,-1,2,-1,-3,0,-2,-2,-5
1461663805447778,-2,2,2,3,0,0,1,-2
1461663805453784,-2,1,-3,-3,-2,-2,-2,2
1461663805453784,-1,4,1,-1,-3,-2,-2,0
1461663805461729,4,-6,-1,-1,0,0,-2,-4
1461663805461729,-1,2,-2,-2,-2,-3,-1,-2
1461663805470737,-3,0,-1,-1,-1,-1,0,1
1461663805470737,-5,0,-1,2,0,0,0,0
1461663805484761,-2,-9,-4,-6,-4,-1,1,-4
1461663805484761,-2,-3,2,2,-1,-1,-1,-3
1461663805491751,2,3,2,1,0,-1,-1,-1
1461663805491751,0,6,-3,-5,-5,-2,-2,1
1461663805507765,-3,-6,-4,-2,-2,-1,-2,-2
1461663805507765,4,1,-1,-3,0,-1,-1,-2
1461663805513777,-1,-3,-1,1,2,-1,0,0
1461663805513777,-5,-6,-4,-2,-2,-2,-2,0
1461663805521832,8,5,-2,0,1,-2,-2,0
1461663805521832,2,3,-1,-2,-2,-2,0,0
1461663805530779,-1,-3,-5,-6,-3,1,-2,1
1461663805530779,-5,-4,-2,-3,1,-2,0,0
1461663805544848,-1,-1,1,4,-1,-1,-1,-2
1461663805544848,1,2,1,-3,-3,-1,-1,-2
1461663805558806,-1,1,1,3,1,-1,-1,0
1461663805558806,2,4,1,-1,-1,0,-1,-1
1461663805567811,-4,-8,-5,-4,-2,-3,-1,-5
1461663805567811,0,2,-1,-1,-1,0,-1,0
1461663805573837,-5,-2,-1,-3,-2,-1,-1,1
1461663805573837,-3,-3,1,6,1,0,-1,-2
1461663805581830,9,3,0,-2,-2,-1,-1,-4
1461663805581830,-3,-4,-1,0,0,0,1,-2
1461663805590823,1,-1,-1,1,-2,0,-2,2
1461663805590823,-2,-3,-3,-3,-3,-2,-2,-1
1461663805604833,2,2,1,3,1,0,-2,-4
1461663805604833,0,3,-1,0,-1,-1,0,0
1461663805611834,-2,1,-1,0,1,-1,1,3
1461663805611834,-3,-6,-2,-1,-2,-1,-1,0
1461663805626847,0,3,-1,-2,-3,-1,-1,-4
1461663805626847,-2,-3,-3,-3,-1,0,-3,-1
1461663805633851,-2,4,3,0,-1,0,-1,0
1461663805633851,-1,2,-2,-2,-1,0,-2,-1
1461663805650862,-1,-6,-1,-3,0,-3,-1,-3
1461663805650862,-1,0,0,2,2,-1,0,-2
1461663805651864,-3,-3,-2,1,2,-1,-1,-1
1461663805651864,-3,0,-2,-1,-3,-1,-2,2
1461663805664885,0,1,-3,-4,-4,0,-1,-4
1461663805664885,5,0,1,1,1,0,1,0
1461663805671877,-4,-6,-4,0,1,-1,-1,0
1461663805671877,-4,1,-4,-4,-1,-2,0,1
1461663805686887,0,3,3,7,0,0,0,-4
1461663805686887,4,-2,0,-2,-2,-1,-2,1
1461663805693932,5,-3,-5,-6,-3,-1,0,1
1461663805693932,-9,-8,-1,8,5,0,-1,1
1461663805710909,-1,4,-1,-5,-3,-1,0,-2
1461663805710909,1,-3,-2,0,1,-1,1,0
1461663805711909,0,3,4,2,0,-2,0,4
1461663805711909,-6,-3,-4,-11,-6,-3,-2,-4
1461663805724936,-3,-6,0,-2,-2,-1,-2,-6
1461663805724936,-1,-4,-3,0,0,-1,0,1
1461663805738984,-1,2,-1,-2,-1,-2,0,4
1461663805738984,-4,1,0,-2,-3,-2,-1,-2
1461663805746991,0,3,0,1,1,-1,-1,-5
1461663805746991,-1,-2,0,-1,0,1,-2,1
1461663805753995,-4,-5,-2,0,0,1,0,3
1461663805753995,-6,1,2,0,1,-1,0,-1
1461663805770951,-2,-6,-3,-2,-1,-1,-1,-6
1461663805770951,1,0,0,0,-1,-1,-2,0
1461663805771964,0,2,1,-1,0,-1,-1,4
1461663805771964,3,2,3,9,3,1,1,1
1461663805793022,1,-2,0,-3,-1,-2,-2,-5
1461663805793022,-4,-2,-3,-2,-4,-2,-1,1
1461663805795023,-6,-3,-2,-3,-1,-1,-1,2
1461663805795023,3,-3,-4,-5,-4,-3,-2,-4
1461663805807032,7,0,-4,-5,-3,-3,-1,-3
1461663805807032,-6,4,1,1,-1,-1,-1,0
1461663805813993,-4,-1,-1,0,0,1,-1,2
1461663805813993,-3,-6,-3,-4,-2,-2,-3,-4
1461663805830992,4,-4,-4,1,1,-1,0,-4
1461663805830992,0,3,0,-2,0,-1,0,-1
1461663805831993,-2,0,-1,-3,0,-1,0,2
1461663805831993,-1,-4,-2,-3,-2,-2,-2,-2
1461663805845001,0,6,1,-2,-4,-2,-2,-5
1461663805845001,1,-4,-7,0,1,-1,-1,3
1461663805852009,-3,1,0,2,0,-1,0,1
1461663805852009,-2,1,2,-2,-1,-2,-2,-3
1461663805867015,1,-3,-5,-7,-4,-1,-1,-3
1461663805867015,1,-2,3,3,2,-2,1,1
1461663805874021,-4,-3,-1,3,1,-1,-1,3
1461663805874021,0,-1,-2,-1,-1,-1,-1,-3
1461663805890033,-1,-3,0,0,-2,-2,-2,-4
1461663805890033,-4,-2,-2,-4,-3,1,-1,2
1461663805892035,-1,-5,-2,2,0,0,-1,2
1461663805892035,-2,0,-3,-6,-1,-1,-2,-4
1461663805905042,-6,-3,2,2,2,0,-1,-5
1461663805905042,-1,0,2,1,1,0,0,0
1461663805912047,-4,-1,0,-2,-1,-3,-1,1
1461663805912047,-2,-4,-3,-2,-3,-1,-2,-1
1461663805927058,2,2,1,0,0,-1,-1,-5
1461663805927058,-1,-1,-4,-3,-1,0,-1,1
1461663805934063,-4,-1,4,0,-2,-1,0,2
1461663805934063,-2,4,-2,-5,-6,-1,-2,-2
1461663805950073,1,-6,-2,3,1,0,0,-3
1461663805950073,0,3,1,0,-1,0,-1,0
1461663805952075,-5,-10,-1,1,0,0,0,1
1461663805952075,-5,-2,-1,-1,-2,-2,0,-2
1461663805965086,-1,-2,0,2,-1,0,-1,-4
1461663805965086,3,-4,-1,-1,-2,-2,-2,-1
1461663805972089,3,7,0,-3,-3,-1,-2,1
1461663805972089,-8,-2,-1,-1,-2,-1,-2,0
1461663805987101,-3,-7,-3,-4,-3,-2,-1,-1
1461663805987101,1,-2,1,5,1,0,-2,-2
1461663805994106,4,3,-2,-1,-1,0,0,-1
1461663805994106,-4,-2,-4,-2,-1,-1,-1,1
1461663806010133,2,4,-1,-2,-3,0,-1,-2
1461663806010133,7,-2,-3,-1,-1,-2,-1,-2
1461663806017126,-1,1,1,1,-2,-1,0,-1
1461663806017126,-4,-3,-2,-2,-2,-1,0,1
1461663806025128,2,5,0,-1,0,0,-1,-1
1461663806025128,0,0,-1,2,2,0,0,-1
1461663806032141,-6,-4,-1,-1,1,0,0,-2
1461663806032141,1,-6,-2,-1,-2,-3,-3,1
1461663806047144,1,-1,-2,-4,-2,-2,-1,-4
1461663806047144,-3,1,1,0,-2,-1,1,-2
1461663806054182,-1,1,-3,-2,0,0,0,0
1461663806054182,-2,-2,1,0,-1,0,-1,4
1461663806070188,0,-1,-1,0,-2,-1,0,-1
1461663806070188,-3,3,1,2,0,0,1,-4
1461663806072162,-5,-10,-4,-4,-1,0,-2,1
1461663806072162,-1,-3,-2,0,-1,-2,0,2
1461663806085199,6,7,4,1,1,-1,0,-1
1461663806085199,-4,-2,0,1,0,1,-1,-4
1461663806099195,8,8,2,-2,-2,-1,-2,-1
1461663806099195,2,0,-3,-4,-2,-3,-3,2
1461663806107200,0,-3,0,6,4,0,1,-2
1461663806107200,-1,6,3,0,-3,1,-1,-2
1461663806114205,-2,-3,-5,-2,-1,-1,0,0
1461663806114205,1,1,0,-2,-1,-1,-1,1
1461663806130241,0,-5,-1,-2,-2,-2,-2,-2
1461663806130241,-4,0,-2,-5,-2,-1,-1,-3
1461663806132217,-4,2,3,8,1,0,-1,-1
1461663806132217,-3,-3,-4,-1,-1,-1,-1,0
1461663806144250,-2,-6,-1,4,1,-1,0,-2
1461663806144250,1,5,4,2,2,0,-2,-2
1461663806153221,-1,5,1,-4,-1,1,0,2
1461663806153221,2,1,-2,2,0,-2,-1,0
1461663806167268,1,1,-3,-2,-2,-2,-1,-2
1461663806167268,-5,-13,-5,-5,-2,-2,-1,0
1461663806181250,-3,0,-2,-7,-2,-2,0,-1
1461663806181250,0,3,1,5,0,-1,0,-2
1461663806190302,0,-3,-2,-3,1,0,-1,-3
1461663806190302,-1,-1,-5,-1,-1,0,-1,1
1461663806192276,-1,-1,0,-1,0,-1,0,1
1461663806192276,-3,-3,-1,-6,-2,0,0,-3
1461663806204312,4,2,-2,-2,-2,-2,-1,-3
1461663806204312,-6,-6,-3,-3,-2,-2,0,0
1461663806213268,0,4,-1,2,-1,-2,-1,0
1461663806213268,-2,0,-1,0,-2,0,-2,-3
1461663806227299,3,1,-2,-2,-3,-2,-2,-7
1461663806227299,0,-4,-1,5,3,0,1,1
1461663806234304,-4,1,0,-5,-3,-1,-1,0
1461663806234304,-1,1,-3,-5,-5,-4,-2,-4
1461663806250318,1,4,1,2,3,-1,-2,-3
1461663806250318,1,-5,0,6,3,-1,-1,1
1461663806252295,-8,-5,-5,0,0,-1,-1,0
1461663806252295,-3,1,1,-2,-2,-1,-1,-3
1461663806264305,0,-2,-1,-3,-5,-1,-1,-1
1461663806264305,1,1,1,-2,-1,-1,-1,0
1461663806273307,-6,0,-2,-1,-2,0,-1,0
1461663806273307,-1,0,2,4,2,-1,-3,1
1461663806287317,-1,-3,0,0,-1,-1,-1,-4
1461663806287317,3,0,1,1,0,-2,0,-3
1461663806294321,-5,-3,-3,-2,-3,-1,-2,0
1461663806294321,-3,-4,-4,-5,-5,-1,-2,0
1461663806310330,-4,0,3,-1,-1,0,1,-3
1461663806310330,5,8,0,-2,0,-1,0,-3
1461663806312331,3,2,4,3,1,0,-2,2
1461663806312331,-5,0,-4,-5,1,-2,-2,0
1461663806324342,-2,-2,-2,5,1,0,-1,-1
1461663806324342,1,-4,-3,-5,-3,0,0,-1
1461663806333346,0,5,2,-2,0,-1,0,1
1461663806333346,5,4,-3,-3,-4,-2,-1,-2
1461663806347413,2,-4,-2,3,2,-1,-1,-2
1461663806347413,-8,3,-2,-6,-4,0,-2,-3
1461663806354418,0,-1,-2,-4,-4,-1,-1,2
1461663806354418,-1,0,2,5,1,-1,-1,-1
1461663806378389,0,-2,-3,0,2,-1,-1,-1
1461663806378389,-2,-5,-1,3,0,-1,-1,0
1461663806379379,-1,-4,-4,-6,-3,-3,-1,0
1461663806379379,-1,-2,0,-6,-5,-1,-1,-4
1461663806384439,4,6,-2,-3,-1,0,-1,-3
1461663806384439,-4,-13,-1,6,4,-1,-1,0
1461663806393484,2,1,1,2,0,-1,-1,2
1461663806393484,-3,-7,-1,-2,-2,-3,-3,-6
1461663806407520,2,2,-3,-11,-5,-3,-3,-4
1461663806407520,1,9,2,6,0,0,2,4
1461663806414501,-4,-8,0,0,2,0,0,3
1461663806414501,-4,-8,-5,2,1,-2,-1,-3
1461663806429511,2,7,3,-1,-1,-1,-2,-3
1461663806429511,2,4,-1,-8,-3,-1,-3,1
1461663806436515,-6,-6,-2,2,0,-1,-2,0
1461663806436515,-5,-1,-1,0,-2,-1,-1,-2
1461663806444521,-1,-9,-5,1,1,-1,0,-3
1461663806444521,0,3,-2,-6,-4,-2,-1,1
1461663806453520,1,-1,-1,-1,0,-1,-2,1
1461663806453520,-4,-3,-2,-3,0,-1,-2,-4
1461663806467538,-2,-8,-3,-1,-1,-2,-1,-3
1461663806467538,-2,1,1,1,1,1,0,1
1461663806474535,-1,-1,-2,-2,-2,-1,1,1
1461663806474535,-3,0,-2,-1,-2,-2,-1,-2
1461663806489557,1,-1,3,9,5,0,1,-1
1461663806489557,-1,-1,-2,0,-1,-2,-1,1
1461663806496564,-7,-7,-1,-2,0,-3,-2,0
1461663806496564,-6,-11,-3,-3,-3,0,-2,-4
1461663806504568,2,4,-2,-4,-4,-1,-1,-2
1461663806504568,3,3,-4,-6,-3,-1,0,-1
1461663806513574,-4,-1,1,3,0,0,0,1
1461663806513574,-5,9,0,-2,0,-1,0,-2
1461663806526583,3,-4,-1,-1,-1,-1,-2,-4
1461663806526583,0,-2,-4,-6,-3,-1,-1,1
1461663806535592,-4,-2,-1,-1,-1,0,0,1
1461663806535592,0,-4,-4,5,1,0,-2,-2
1461663806549592,4,5,-2,-5,-3,-1,-1,-2
1461663806549592,-7,-4,2,0,0,-1,0,1
1461663806556664,-1,-2,-3,-3,-2,-1,-2,1
1461663806556664,-7,1,-2,-3,0,-2,-2,-1
1461663806573629,2,5,3,0,-2,0,0,-1
1461663806573629,4,-2,3,7,4,1,2,-1
1461663806575607,-3,0,-1,2,-3,-1,0,1
1461663806575607,-1,1,0,0,1,0,-3,-1
1461663806587639,-1,-14,-3,2,3,-1,-1,-3
1461663806587639,1,0,-3,-8,-2,-2,0,-1
1461663806594644,-1,-5,-2,-1,0,0,0,2
1461663806594644,-1,2,0,-5,-3,-3,-1,-1
1461663806609644,0,2,1,-6,-4,-1,0,-1
1461663806609644,-1,-2,3,8,4,-1,0,-1
1461663806616649,-1,3,0,4,0,-2,-1,1
1461663806616649,-1,-4,-1,1,-1,-2,-2,-2
1461663806632659,0,-5,-4,-2,-3,-1,-1,-3
1461663806632659,-4,0,0,-3,-1,-1,0,0
1461663806634660,-2,4,-1,-1,-1,-1,-1,1
1461663806634660,-6,-4,2,6,2,1,-2,-2
1461663806655675,0,4,-1,-1,1,1,0,0
1461663806655675,5,2,-3,-2,-2,0,-1,1
1461663806656675,-2,1,-1,-5,-2,-1,-2,0
1461663806656675,-3,-4,1,-1,-2,0,-1,-2
1461663806669684,4,6,3,3,1,-1,-1,-2
1461663806669684,0,-7,-6,-7,-3,-1,-3,0
1461663806676678,0,2,-3,2,2,-1,0,3
1461663806676678,3,11,4,3,0,-2,0,-1
1461663806692728,0,-9,-4,-11,-8,-3,-2,-3
1461663806692728,0,-9,1,13,4,1,-1,-1
1461663806694692,-5,-3,-4,-4,-1,-2,-1,-2
1461663806694692,1,8,-2,-5,-3,-3,-2,-3
1461663806707701,5,2,-1,-2,-1,0,8,0
1461663806707701,2,1,1,-3,-4,-1,-4,2
1461663806713716,-4,-1,-7,-12,-8,-2,-3,0
1461663806713716,-13,-13,-1,4,7,0,-2,-1
1461663806729727,3,1,-2,-5,-3,-3,2,-3
1461663806729727,3,9,0,-3,-3,-1,-4,1
1461663806736758,-1,2,0,3,-3,1,0,-1
1461663806736758,-6,-10,-8,-13,-8,-3,-3,-5
1461663806753771,2,6,0,-1,0,-1,-3,-2
1461663806753771,5,-1,5,5,3,-1,1,3
1461663806754754,-1,7,3,-2,-4,-1,0,1
1461663806754754,1,-4,-4,3,0,1,2,-4
1461663806767806,-5,-10,-10,-13,-1,-1,-2,-4
1461663806767806,-5,-2,-4,-6,-4,-4,-2,-1
1461663806773805,2,0,12,15,5,0,4,1
1461663806773805,1,-1,-5,-5,-9,-2,1,-11
1461663806789816,5,-6,8,18,9,2,-3,9
1461663806789816,-10,-3,-10,-11,-5,-6,-7,15
1461663806796821,0,7,6,-14,-6,-4,-6,-14
1461663806796821,6,5,9,5,-5,-4,-2,-31
1461663806812785,5,-2,-13,-12,6,7,10,17
1461663806812785,-2,3,-2,6,3,2,4,22
1461663806814787,-11,-10,-9,1,5,1,-2,-8
1461663806814787,7,6,-1,-4,-2,-5,-6,-29
1461663806827797,-1,10,4,-5,-8,-2,0,4
1461663806827797,-5,-12,-2,-10,-3,0,-5,20
1461663806833848,-5,9,17,25,-10,-6,-17,-9
1461663806833848,5,-10,-5,0,16,7,14,-19
1461663806849801,-5,-9,-9,-7,-1,1,12,14
1461663806849801,-7,0,-10,-24,-7,8,33,18
1461663806856830,-11,-3,-5,-9,-5,3,-13,-12
1461663806856830,10,14,-2,20,6,-11,-38,-26
1461663806872834,-5,-23,9,2,-9,-23,-28,4
1461663806872834,-7,8,-11,-1,9,0,1,14
1461663806874820,2,11,0,0,3,5,8,-6
1461663806874820,5,-21,-7,-11,-9,-3,4,-17
1461663806886830,9,12,-9,-6,0,1,7,13
1461663806886830,7,24,49,68,15,9,7,18
1461663806895836,-28,-20,-21,-20,10,18,59,-4
1461663806895836,-2,-2,-7,-17,-11,10,6,-13
1461663806909854,-3,-1,-6,18,-6,-18,-35,-6
1461663806909854,-4,-7,-4,-9,-12,-25,-32,-1
1461663806916859,24,22,4,33,17,5,-15,1
1461663806916859,25,6,3,-17,-4,6,32,3
1461663806932916,-24,2,1,-24,-10,8,11,-3
1461663806932916,4,1,5,-34,-14,5,-7,16
1461663806934874,5,11,-17,-3,1,7,8,1
1461663806934874,-18,-38,-8,-35,-23,-15,7,-15
1461663806946910,16,39,-4,1,11,-11,-45,6
1461663806946910,-37,-72,14,63,-2,-16,-2,3
1461663806955891,11,37,4,-21,-9,-6,-6,9
1461663806955891,33,15,-12,10,7,16,35,-9
1461663806969909,5,45,27,23,12,30,39,22
1461663806969909,-30,-53,-19,6,-4,-11,-68,-23
1461663806976914,-14,-49,-14,26,22,-15,-12,-11
1461663806976914,-28,-21,-16,15,4,-16,-65,-13
1461663806992912,38,30,17,16,9,12,51,1
1461663806992912,18,63,-32,-77,-13,14,61,10
1461663806994915,-39,-21,-7,-23,-36,-21,-44,2
1461663806994915,26,41,31,1,-4,-9,22,9
1461663807006969,-35,-86,-16,-37,-5,13,29,-15
1461663807006969,27,48,-14,-78,-8,20,49,1
1461663807015924,19,-7,12,81,40,1,-31,22
1461663807015924,4,-4,28,-27,-38,-38,-52,14
1461663807029939,-1,-109,-36,-24,8,0,-70,-44
1461663807029939,14,89,47,78,28,21,70,-16
1461663807036990,-28,90,-4,-68,-32,-3,-21,-3
1461663807036990,11,127,19,100,41,13,56,37
1461663807053003,-18,114,-12,-13,-15,-23,-38,-6
1461663807053003,-21,-9,3,-32,-11,-24,-64,-44
1461663807054954,24,-30,-10,-8,-16,18,90,19
1461663807054954,-10,-123,5,-5,6,25,-29,18
1461663807067011,-33,-97,10,19,-7,-20,-36,-29
1461663807067011,-13,-128,-39,-55,-8,-3,0,3
1461663807075971,-1,-119,21,51,20,14,34,-1
1461663807075971,4,97,-20,-60,-9,19,71,27
1461663807090028,11,104,-27,-18,-6,-10,-28,-2
1461663807090028,-4,127,39,121,34,-33,-64,-11
1461663807097033,-6,22,-9,-10,-11,-35,-33,-4
1461663807097033,27,-91,1,12,-1,6,29,27
1461663807113015,26,-17,9,-68,-23,39,48,4
1461663807113015,-73,9,-30,62,25,8,-42,-36
1461663807115016,0,5,-24,-89,-46,-35,-65,-28
1461663807115016,-35,-55,-28,10,24,11,21,-16
1461663807127027,5,5,18,46,23,-1,3,4
1461663807127027,58,-7,27,10,-8,-13,3,31
1461663807136004,-41,9,19,13,12,-6,10,-9
1461663807136004,-27,-26,6,-46,-39,-15,-2,-15
1461663807150030,-23,-5,-19,-73,-35,17,-9,-1
1461663807150030,0,-13,-11,16,18,10,8,10
1461663807157080,74,2,1,30,4,-21,-17,20
1461663807157080,49,-20,-39,-74,-14,-11,-27,-12
1461663807173092,-31,1,42,14,-1,14,68,-1
1461663807173092,28,5,25,8,21,37,62,24
1461663807175048,-23,12,-4,-66,-31,-28,-69,-20
1461663807175048,-8,-29,22,52,25,-3,-42,11
1461663807187057,-1,3,-32,9,-18,-34,-39,-19
1461663807187057,-41,22,-4,-30,-15,-21,-23,-31
1461663807196062,32,-17,7,18,9,23,54,22
1461663807196062,5,-19,-34,-72,-30,15,22,15
1461663807210066,-6,7,30,113,67,15,-6,2
1461663807210066,-23,11,-22,-5,-3,-29,-44,-35
1461663807217071,44,-7,-36,-81,-13,2,34,18
1461663807217071,-25,-23,49,-16,-34,2,-8,-5
1461663807233172,-61,22,-33,77,41,-17,-36,-53
1461663807233172,-93,23,-7,3,1,6,-4,-61
1461663807235134,14,-28,9,37,18,36,48,67
1461663807235134,112,-38,-46,-92,-31,6,14,104
1461663807246182,-26,16,33,70,18,-28,-8,-54
1461663807246182,-76,23,8,-26,-9,0,2,-83
1461663807255188,9,-11,-14,14,18,11,-32,38
1461663807255188,67,-29,38,54,14,-29,-66,66
1461663807270218,39,4,27,-45,-9,23,91,-39
1461663807270218,-41,22,-17,-128,-103,13,-28,-48
1461663807276176,6,-3,54,109,89,2,-32,28
1461663807276176,33,-24,-4,7,12,-19,-12,45
1461663807293234,27,8,-13,-73,-22,-17,-6,-40
1461663807293234,-71,26,-33,-1,-1,18,92,-50
1461663807295179,68,-15,-17,-128,-103,19,73,32
1461663807295179,-87,-25,63,127,86,32,-16,37
1461663807307186,-15,8,-1,-6,-23,-40,-43,-33
1461663807307186,-7,24,-22,-24,34,22,-16,-27
1461663807316193,-44,-8,14,-85,-86,-18,33,31
1461663807316193,58,5,-50,37,51,7,-60,16
1461663807330204,-47,3,51,58,35,13,42,-23
1461663807330204,-43,-6,19,5,6,-23,-29,-34
1461663807337212,52,-11,21,-26,3,8,26,11
1461663807337212,72,-3,-58,-82,-57,-24,-12,1
1461663807352280,-68,-4,-4,-112,-40,36,30,-16
1461663807352280,-28,-6,-16,-46,11,11,32,-6
1461663807359241,-58,-23,-3,111,67,-45,-77,14
1461663807359241,-18,2,10,1,-1,-25,-39,-12
1461663807366246,-13,11,-20,-74,-36,-14,-39,-21
1461663807366246,26,-4,-36,8,-2,13,38,14
1461663807375252,34,-5,44,89,67,28,24,11
1461663807375252,15,-2,23,-34,-21,-8,48,1
1461663807390301,-47,3,0,-5,5,10,-72,-15
1461663807390301,5,6,3,-15,-7,-13,-46,-18
1461663807396307,28,-12,-43,-97,-26,-10,50,13
1461663807396307,69,3,43,103,-7,-8,26,10
1461663807412272,7,2,-18,20,16,20,127,-14
1461663807412272,-10,-3,27,6,-5,20,-45,-24
1461663807419323,-53,-5,-7,27,21,-15,-128,-1
1461663807419323,20,-10,-20,-123,-48,-45,1,2
1461663807426270,-48,4,-6,1,-10,5,27,-5
1461663807426270,32,4,26,25,-2,-8,51,36
1461663807436277,-30,-5,3,10,-8,25,19,4
1461663807436277,-31,6,-35,-42,-16,2,23,-2
1461663807450287,2,5,32,118,50,25,-2,-6
1461663807450287,68,-8,24,-35,20,1,-3,-23
1461663807456349,-76,-14,-40,-113,-94,-38,-19,-8
1461663807456349,-51,5,-1,127,80,44,70,-33
1461663807472334,15,1,36,1,16,-1,-37,-13
1461663807472334,64,-2,33,-38,-19,-33,-5,16
1461663807486341,-44,-4,-58,-59,-5,3,-13,6
1461663807486341,-65,-7,12,-28,-21,24,-11,-19
1461663807495348,-27,6,-71,-38,-33,-42,-48,-2
1461663807495348,-70,2,1,47,8,-14,-2,24
1461663807497325,87,-10,27,-27,-18,19,46,2
1461663807497325,85,1,10,-5,-5,-10,-59,-20
1461663807510331,-41,-3,18,29,17,8,33,-16
1461663807510331,-68,3,-37,-105,-67,-6,41,-31
1461663807516350,64,-10,-24,111,78,38,-70,2
1461663807516350,-66,13,-22,-51,0,-34,-45,-16
1461663807532345,39,-1,-50,-116,-31,-12,-13,-4
1461663807532345,-5,4,90,127,43,-1,1,6
1461663807540351,-47,-13,24,32,-1,19,88,6
1461663807540351,-8,3,-36,-78,-19,18,5,-42
1461663807555420,-33,7,25,80,32,-13,-91,-8
1461663807555420,97,-3,-4,-6,-7,19,79,65
1461663807557364,-101,-6,11,-49,-7,41,8,-2
1461663807557364,-6,-7,10,50,-11,-83,-94,-35
1461663807570372,-7,0,-2,-34,-52,-48,-31,-13
1461663807570372,85,-8,-13,-36,4,18,26,21
1461663807576388,78,-5,10,-52,-16,1,112,14
1461663807576388,-78,6,-57,21,18,31,-26,-30
1461663807592417,-42,1,-86,-98,-75,-33,-27,-9
1461663807592417,-60,11,77,88,63,27,-10,0
1461663807599454,35,-14,-29,10,28,-28,-61,-1
1461663807599454,-15,-9,6,-82,-54,-8,22,-5
1461663807615404,7,11,62,70,20,22,31,-10
1461663807615404,23,9,8,12,2,4,-7,10
1461663807617407,4,-12,24,26,17,-4,11,-2
1461663807617407,70,6,3,-90,9,26,92,14
1461663807629414,-43,3,-6,-35,6,27,-19,7
1461663807629414,85,-6,33,30,-12,-31,2,42
1461663807638420,40,-2,-24,21,2,12,18,-6
1461663807638420,-12,8,45,28,19,48,0,27
1461663807652429,55,-12,-70,-28,-21,-72,-54,6
1461663807652429,-67,19,-46,-6,-11,-33,-40,-11
1461663807659435,34,-10,-13,-13,-22,8,-18,-6
1461663807659435,51,-1,2,-13,-20,-40,-27,-15
1461663807675446,-41,-3,70,1,9,32,23,-5
1461663807675446,-21,-5,-38,-32,11,3,-51,-13
1461663807677447,68,-12,-1,-16,-12,-7,96,13
1461663807677447,-128,7,51,59,40,54,21,-55
1461663807689455,39,-1,-17,-55,-36,-17,-28,-6
1461663807689455,8,-1,-38,49,7,-7,-12,-4
1461663807698462,46,-14,30,63,39,13,-9,-2
1461663807698462,-16,15,43,30,38,11,26,-16
1461663807712472,-7,0,-14,-38,3,3,50,-7
1461663807712472,-100,-6,-57,-86,-14,20,-28,-49
1461663807719509,6,-8,27,44,9,1,2,-4
1461663807719509,-119,7,-21,-5,-32,-39,-71,-35
1461663807735563,22,2,18,31,6,-8,-20,-2
1461663807735563,26,-9,-31,-62,-36,-30,-1,19
1461663807737565,-18,-5,-11,-10,-3,12,12,-8
1461663807737565,85,-6,6,7,-21,12,15,7
1461663807749573,-9,16,8,18,17,-24,-48,0
1461663807749573,-46,4,7,-26,-19,-26,-33,36
1461663807758543,-22,5,-3,10,16,-15,-52,-3
1461663807758543,-42,-7,-72,-45,-39,12,54,-22
1461663807772571,-12,1,46,107,91,76,83,-13
1461663807772571,71,0,56,45,35,10,-11,7
1461663807779576,23,-6,5,-79,-17,-18,-17,7
1461663807779576,-89,8,-21,46,28,4,-13,-56
1461663807795588,16,-2,-13,-39,-38,-9,-7,-14
1461663807795588,-12,-5,-34,-4,8,23,93,55
1461663807797589,31,-10,-6,-19,-26,-1,-30,9
1461663807797589,49,14,12,3,8,-22,-24,-15
1461663807809588,1,6,-13,-8,-12,-22,-40,-10
1461663807809588,93,-6,-12,-37,-25,-9,0,23
1461663807818644,-128,-5,-36,-15,-33,-30,-34,-1
1461663807818644,56,3,-13,-10,-1,-20,-37,6
1461663807832650,-10,5,-14,-6,6,29,51,-6
1461663807832650,11,1,1,9,1,-5,-1,-9
1461663807846659,42,-3,29,64,31,-1,-21,3
1461663807846659,-3,6,-11,10,18,1,-1,-26
1461663807855667,25,-7,65,-64,-37,14,42,0
1461663807855667,-26,-4,-50,72,68,38,9,2
1461663807857631,-26,-17,-25,-47,-9,-11,-8,-5
1461663807857631,17,8,59,103,31,3,18,-26
1461663807869648,-35,1,9,-6,4,18,55,-4
1461663807869648,-5,-4,11,-49,-24,7,-56,-22
1461663807878636,-1,-14,-11,34,-17,-51,-107,-3
1461663807878636,-24,11,4,-29,1,12,82,16
1461663807892659,12,2,-39,-1,5,-13,-41,-1
1461663807892659,-50,-3,16,2,-25,-16,-27,-6
1461663807899670,-18,4,-10,-11,-4,20,59,-5
1461663807899670,87,4,-38,-57,-37,-45,-56,-10
1461663807915652,-10,-3,-3,22,-12,-11,-55,-5
1461663807915652,16,-2,30,42,15,31,80,28
1461663807917653,-79,-4,24,-22,-7,-26,-37,1
1461663807917653,-51,6,-10,6,18,7,-7,-3
1461663807929663,1,5,-5,6,15,8,38,0
1461663807929663,3,-7,8,16,13,2,2,-3
1461663807938669,43,-12,12,19,13,17,9,-3
1461663807938669,24,5,9,-39,-15,18,26,-10
1461663807952692,-13,-1,-16,-1,5,-1,3,-9
1461663807952692,40,-1,13,-18,-17,-12,-11,4
1461663807958698,21,-5,-23,-13,-26,-3,49,3
1461663807958698,-128,-2,-22,-50,-36,-7,-49,-41
1461663807975693,114,3,-14,15,9,-1,5,-1
1461663807975693,42,-5,-5,-4,12,30,48,25
1461663807976693,-124,-4,-6,-4,3,-61,-104,5
1461663807976693,42,4,-20,-44,-25,-7,21,-6
1461663807989718,-3,4,36,82,74,67,-42,-14
1461663807989718,38,-11,-20,-1,-19,-68,-73,-11
1461663807998709,76,-6,-5,-6,-17,4,30,0
1461663807998709,-16,6,35,41,25,2,2,-17
1461663808012731,-45,-2,-25,-41,-20,-11,30,-1
1461663808012731,-30,1,-20,-29,-23,12,17,-6
1461663808018738,-8,-12,50,63,44,20,-6,-9
1461663808018738,47,6,26,-9,5,-4,-4,-5
1461663808035883,-25,5,-13,61,31,14,35,-4
1461663808035883,-59,-3,4,-10,-12,-12,-27,-1
1461663808036848,26,-13,-7,-28,-41,-8,-5,-6
1461663808036848,28,1,5,12,-1,10,15,0
1461663808048897,31,5,-4,-42,-10,-11,19,0
1461663808048897,-90,7,-16,-16,-9,-56,-33,11
1461663808065849,21,-11,-11,-18,-10,25,-7,6
1461663808065849,-1,6,7,18,17,27,-6,-22
1461663808072854,33,2,-6,-11,-10,-10,-1,-12
1461663808072854,-13,4,1,-11,-24,-10,-1,0
1461663808078858,-34,-5,-6,-2,17,-7,18,-9
1461663808078858,16,-3,-3,11,-3,14,10,27
1461663808095869,-47,-6,-38,-106,-56,-21,-3,21
1461663808095869,31,-8,51,85,72,34,22,-10
1461663808096870,26,0,10,-8,-7,-1,6,-12
1461663808096870,-8,7,-30,-72,-28,-10,-9,-34
1461663808108877,-7,0,61,77,62,16,15,4
1461663808108877,-3,-2,-19,-60,-9,4,-7,22
1461663808117883,-9,-8,-3,13,9,0,-15,-3
1461663808117883,30,4,-4,3,-7,-7,0,-9
1461663808131893,-5,-1,-4,-21,-36,-16,-7,-7
1461663808131893,43,-7,-23,-21,-11,2,-19,-8
1461663808138898,-42,14,-6,12,4,-8,31,-4
1461663808138898,-35,-5,-11,12,-4,-30,-47,-5
1461663808155911,8,-4,-5,-9,-4,29,65,37
1461663808155911,-23,-23,5,12,9,31,-10,-15
1461663808156910,16,-20,-17,-24,-23,-33,-30,-45
1461663808156910,0,-96,4,15,6,-25,-6,19
1461663808168920,-9,-24,4,3,-9,22,-13,18
1461663808168920,29,41,-12,-26,-1,18,5,-9
1461663808177925,-3,127,-11,-30,-2,7,24,-23
1461663808177925,-16,92,22,28,27,3,10,3
1461663808191952,-10,50,-2,13,12,-11,-13,24
1461663808191952,3,2,5,31,13,-4,14,10
1461663808198999,-1,97,2,-3,-6,3,-20,-37
1461663808198999,-4,8,-6,15,4,4,2,-9
1461663808215954,-3,-12,-5,-26,-26,-13,-9,17
1461663808215954,-10,14,-8,-23,-19,-9,-9,3
1461663808217970,-2,127,0,4,-1,0,-6,-20
1461663808217970,2,127,-9,-9,-9,-18,4,2
1461663808228991,-2,-5,-2,0,0,16,3,19
1461663808228991,4,-26,-5,-5,-6,-28,-3,3
1461663808237969,15,25,14,18,14,28,23,-13
1461663808237969,-13,2,4,7,3,-15,1,19
1461663808251994,-9,-32,-12,-10,-6,-15,-38,25
1461663808251994,-15,-105,-4,1,-4,-3,-6,-20
1461663808258984,-18,-102,4,-2,1,17,10,-63
1461663808258984,-11,-88,0,-1,8,2,11,7
1461663808274995,27,-97,2,10,4,-30,-13,39
1461663808274995,31,-57,0,-11,-12,16,5,7
1461663808281999,-21,47,-9,-11,-7,-9,0,-51
1461663808281999,-22,9,2,-7,-8,12,4,-5
1461663808289032,24,-1,6,17,22,-1,0,48
1461663808289032,14,18,11,18,8,1,4,12
1461663808298029,-24,3,-14,-15,-6,-1,-6,-48
1461663808298029,-12,0,7,19,2,14,6,-2
1461663808312020,25,-3,0,-11,-12,-4,-4,42
1461663808312020,-1,-50,6,-2,-3,-5,-4,-1
1461663808321060,-33,-19,3,7,4,-4,-7,-49
1461663808321060,6,-10,5,-6,-2,7,-5,12
1461663808335096,7,-66,-12,-6,-5,-14,1,35
1461663808335096,5,-115,-4,-4,2,0,4,-7
1461663808342042,-23,16,5,1,-5,-12,-16,-37
1461663808342042,1,83,-5,0,1,20,17,8
1461663808349106,21,26,5,2,1,5,2,29
1461663808349106,10,65,-4,-3,0,4,-1,-2
1461663808358054,-23,-9,-1,-1,-4,-3,1,-28
1461663808358054,-7,-17,-4,4,-1,-11,-6,1
1461663808372082,20,19,-1,2,2,6,1,24
1461663808372082,4,-16,-7,-6,-5,-4,-6,-6
1461663808379067,-17,-1,3,4,0,-2,0,-30
1461663808379067,-8,43,-1,-1,3,2,0,7
1461663808395138,15,46,-1,-5,0,-2,0,26
1461663808395138,5,63,0,2,-2,-4,-5,-3
1461663808402138,-15,52,-1,-6,2,1,0,-31
1461663808402138,-2,42,-2,3,-1,5,4,9
1461663808409089,12,19,-3,3,0,0,-1,26
1461663808409089,-1,33,2,-30,-17,-9,-6,-8
1461663808418151,-7,26,21,49,22,8,3,-24
1461663808418151,-4,-10,-18,-5,0,5,4,1
1461663808432165,12,-1,-2,2,2,-5,-3,14
1461663808432165,4,26,-5,-4,-2,-1,-2,-2
1461663808439169,-14,-18,-10,-17,-12,0,0,-19
1461663808439169,-3,-23,6,-1,-2,0,2,7
1461663808455181,9,-13,0,4,2,-2,-1,12
1461663808455181,-1,5,-3,-4,1,-1,-2,-6
1461663808462136,-7,3,2,-8,-5,1,0,-13
1461663808462136,-2,-4,1,6,1,-2,-1,3
1461663808478137,4,5,-2,-8,-7,-3,-6,5
1461663808478137,0,1,1,5,1,2,-1,-3
1461663808479138,-12,1,-4,-4,-2,1,0,-8
1461663808479138,-2,0,-7,-3,0,0,-1,2
1461663808492147,11,2,0,-3,-3,-3,0,7
1461663808492147,1,0,-6,2,1,2,-2,-3
1461663808499212,-11,1,-6,-2,1,-1,-2,-6
1461663808499212,2,-1,12,0,0,-1,0,1
1461663808515165,8,-3,2,-1,-2,-2,-4,2
1461663808515165,-1,2,-4,1,0,-1,-2,1
1461663808522203,-8,0,-7,-14,-7,0,-2,-4
1461663808522203,0,-14,-2,-2,0,1,1,0
1461663808538211,7,3,10,13,13,2,2,3
1461663808538211,-1,-4,-17,-2,-1,-2,-1,0
1461663808540193,-12,-12,-11,-24,-11,-3,-3,-4
1461663808540193,5,0,8,14,3,1,2,1
1461663808552254,3,3,2,-6,-5,-4,-2,-3
1461663808552254,-3,-2,5,5,2,1,-1,-1
1461663808559196,-2,-4,-5,-5,-2,-3,-1,1
1461663808559196,1,-5,-4,-6,-2,-3,-3,0
1461663808575224,2,-7,-6,-3,-3,-1,-2,-2
1461663808575224,1,1,2,1,1,-2,-2,1
1461663808589275,-8,-12,-3,3,0,-1,-1,-1
1461663808589275,-2,-5,-1,-2,0,-1,0,-2
1461663808598282,2,-8,-2,3,-1,0,0,-1
1461663808598282,-2,-7,-3,-3,-4,-1,-1,-1
1461663808600249,-4,-6,2,3,0,0,-2,-1
1461663808600249,-1,-6,0,3,1,-1,-2,-1
1461663808612234,2,-3,-4,-7,-3,1,0,-2
1461663808612234,-2,-6,4,1,-2,-2,-1,0
1461663808619238,-4,-3,3,0,-2,-1,-1,-1
1461663808619238,-1,-6,-4,-9,-4,-2,-1,-1
1461663808635250,0,-7,-4,-7,-3,-2,-3,-1
1461663808635250,-2,-3,-6,3,4,2,0,-1
1461663808641253,2,1,11,17,7,0,-2,0
1461663808641253,0,-1,6,-5,-4,1,1,-1
1461663808658277,4,1,-6,-1,-5,-3,-1,-3
1461663808658277,-4,-5,9,-2,-1,-1,-3,-2
1461663808659278,-5,0,2,-8,-5,-2,-3,-1
1461663808659278,2,2,-2,0,0,-1,-2,-2
1461663808672287,-1,-2,2,-1,-2,-1,-1,-2
1461663808672287,-1,0,-5,2,-1,1,-1,0
1461663808679280,-1,-1,-2,1,-2,-4,-1,0
1461663808679280,-1,-1,-1,0,1,0,-2,-1
1461663808695354,0,-4,-2,-1,1,0,0,-1
1461663808695354,-2,-5,-2,1,-3,-2,-2,-2
1461663808701355,-3,-3,-3,-2,-2,0,-1,0
1461663808701355,-1,-2,-3,-1,-2,-1,-1,-3
1461663808718320,0,-6,-5,-5,-2,-3,0,-3
1461663808718320,-1,1,-2,-4,-3,-1,-2,0
1461663808720310,0,-3,-2,1,0,-1,-1,1
1461663808720310,-3,-2,-4,5,2,-1,0,-2
1461663808732376,-2,0,3,-1,-2,-1,-1,-2
1461663808732376,-2,0,5,7,5,-1,0,-1
1461663808739381,-2,0,-8,-8,-4,-1,1,2
1461663808739381,1,3,9,8,3,1,1,-1
1461663808763341,-2,-5,4,-3,-2,1,-1,-3
1461663808763341,0,-2,-2,7,4,-1,0,-1
1461663808764342,-1,-8,-14,-13,-5,-3,-2,0
1461663808764342,1,0,6,8,2,-1,-1,-2
1461663808777351,-3,1,1,2,-1,-1,0,-2
1461663808777351,-2,1,-2,-11,-5,-3,-2,-1
1461663808785356,1,-4,-2,4,0,-3,0,1
1461663808785356,0,-3,-7,-7,-4,0,0,0
1461663808792360,0,1,-3,1,2,0,-1,-2
1461663808792360,-3,-1,0,-4,-2,-2,-2,-2
1461663808799366,0,0,2,1,-1,-2,-3,0
1461663808799366,0,-3,4,-3,-3,-3,0,-1
1461663808815381,1,1,-1,1,-1,2,-1,-1
1461663808815381,-2,-2,-3,-3,-3,0,-2,-2
1461663808821381,0,-1,2,-1,-1,0,0,0
1461663808821381,0,-4,-9,-4,-1,0,-2,-1
1461663808838393,-1,-1,-1,1,3,1,0,-2
1461663808838393,-5,-1,1,-1,-4,-1,-1,-2
1461663808839393,-3,-3,-2,0,0,-1,0,-2
1461663808839393,-3,-1,-1,7,4,1,0,-1
1461663808852460,-1,4,-5,-6,-2,-3,-1,-1
1461663808852460,-6,-6,2,-10,-6,-2,-1,-5
1461663808859407,0,2,1,5,3,1,-2,1
1461663808859407,2,3,0,-15,-4,-2,-2,1
1461663808874457,-2,-4,2,17,7,1,1,0
1461663808874457,2,7,5,-5,-2,-2,-1,-2
1461663808881436,-2,-5,3,2,-2,-1,-1,0
1461663808881436,0,0,-9,-6,-3,-2,0,1
1461663808898499,0,5,0,-2,-2,-4,-2,-2
1461663808898499,-4,-8,-4,-2,-1,0,0,-2
1461663808899437,-5,-7,-5,-3,-1,-2,-3,-2
1461663808899437,-3,-3,-2,1,0,0,1,1
1461663808912445,0,-2,1,-4,-2,-2,-1,-2
1461663808912445,-1,0,-2,4,0,-1,-2,-2
1461663808919509,1,2,-1,-3,-2,-1,0,-2
1461663808919509,0,-4,-2,-1,0,0,-2,0
1461663808934519,-2,-4,-4,-7,-5,-3,-1,-3
1461663808934519,-1,-1,-7,-2,1,0,-3,-2
1461663808941482,0,-2,6,3,1,0,-2,0
1461663808941482,1,-1,-2,1,-1,-1,0,0
1461663808958480,-1,0,4,-7,-6,-1,0,-2
1461663808958480,-4,-3,-5,15,6,0,0,-3
1461663808959480,1,-1,-5,0,0,-1,0,1
1461663808959480,0,2,-1,-2,-1,-1,-2,-1
1461663808971549,-2,-3,0,-2,-1,-2,-1,0
1461663808971549,-2,-1,-3,-6,-5,-2,-1,0
1461663808980499,2,4,-1,1,-1,0,-2,1
1461663808980499,-2,-12,-2,1,0,-1,-1,-1
1461663808994511,-5,-6,-2,-2,-1,0,-3,-3
1461663808994511,-4,2,0,-5,-4,-2,-1,-2
1461663809001511,0,-4,-3,-3,-2,-1,0,1
1461663809001511,4,9,0,2,-4,0,-1,-1
1461663809018520,-2,-1,-3,2,4,-1,0,-3
1461663809018520,-4,-3,-2,-7,-3,0,0,-1
1461663809020523,0,1,0,6,3,2,0,0
1461663809020523,-1,-1,-1,-10,-7,-3,-1,-1
1461663809031529,1,-1,1,12,10,2,-1,0
1461663809031529,0,0,-1,-4,-3,-1,-1,-3
1461663809040535,-1,-4,-5,-5,-4,-3,-1,0
1461663809040535,1,3,2,-6,-4,-2,0,0
1461663809054549,1,2,-2,-9,-5,-2,-2,-1
1461663809054549,-2,-4,3,4,-2,-2,-1,-4
1461663809061553,-3,-6,0,-3,-4,-1,0,-1
1461663809061553,-3,-3,0,3,2,0,0,-1
1461663809078566,1,0,-2,-2,-1,1,1,0
1461663809078566,-3,-2,-1,-1,-1,-2,-2,-1
1461663809080565,1,-1,-4,-3,-2,-3,0,1
1461663809080565,0,6,-2,-1,2,0,-1,-1
1461663809091573,-2,-9,-2,0,-2,-1,0,-2
1461663809091573,2,8,-4,-8,-3,-2,-3,-1
1461663809100583,-6,-15,-3,-3,-2,-2,-3,0
1461663809100583,0,-5,-1,3,2,-2,-1,2
1461663809114617,-4,0,-4,-3,-2,-1,-1,-2
1461663809114617,-2,0,-2,-6,-3,-1,-2,-3
1461663809121608,2,6,4,14,8,1,1,0
1461663809121608,1,1,3,4,-1,1,-1,-1
1461663809137620,0,0,1,-4,-1,1,-1,-2
1461663809137620,-3,-5,-5,0,-1,-2,-2,0
1461663809139627,2,4,-2,-8,-4,0,-3,0
1461663809139627,0,-5,-2,-4,-2,0,0,-1
1461663809151653,0,1,0,1,-2,-1,-2,-1
1461663809151653,-6,-8,-10,-5,-1,-2,0,-4
1461663809160620,0,7,3,2,2,1,0,0
1461663809160620,2,0,7,4,2,-3,-1,0
1461663809174631,2,0,-7,-2,-1,-1,2,0
1461663809174631,-4,-2,0,0,0,-2,-1,-2
1461663809181648,-2,-1,0,-2,-5,-1,0,-2
1461663809181648,1,1,-4,-1,1,0,0,0
1461663809197649,1,6,3,1,0,-2,-1,0
1461663809197649,-5,-11,-7,-2,-3,-2,-2,-3
1461663809204695,0,-2,1,-3,-3,0,-1,-1
1461663809204695,-1,-2,1,2,-2,-1,0,-2
1461663809220812,-1,-2,-3,-2,1,1,0,-2
1461663809220812,-3,0,-2,-2,-2,-2,-3,-2
1461663809222769,1,0,3,6,4,-1,0,0
1461663809222769,0,-1,1,-2,-1,0,0,1
1461663809234823,0,1,-1,4,2,0,1,0
1461663809234823,-1,2,-4,-7,-3,-3,-2,-3
1461663809241783,1,-1,8,4,-2,-3,-1,-2
1461663809241783,2,-2,-5,-3,2,1,-1,-1
1461663809257844,1,-3,1,2,0,-2,1,-2
1461663809257844,-4,0,3,3,0,-1,-2,-3
1461663809263785,1,-1,1,-5,-3,-2,-2,1
1461663809263785,-2,-1,-1,2,-2,-2,-4,0
1461663809271849,-4,-1,2,-5,-3,-2,-1,-1
1461663809271849,-1,-3,-6,-4,-1,-2,-1,-1
1461663809280795,0,-1,-9,-4,-2,-2,-1,1
1461663809280795,-2,-2,1,-1,-1,-1,0,-1
1461663809294865,-4,0,-2,-3,-3,-2,-1,-3
1461663809294865,-1,-4,-1,3,-1,-1,-1,-1
1461663809301875,1,-2,-7,-2,-2,-2,-1,1
1461663809301875,3,-1,1,-8,0,0,0,1
1461663809317853,-1,-3,1,4,-2,0,-1,-2
1461663809317853,-1,4,1,0,1,0,0,-3
1461663809323856,-3,-13,0,1,0,1,-2,-2
1461663809323856,-2,-2,-7,-5,-3,0,-1,-2
1461663809331850,2,4,0,-1,-1,-2,-1,-1
1461663809331850,-8,-12,0,-9,-5,-1,-1,-3
1461663809346847,0,-2,-5,3,1,-2,-1,-1
1461663809346847,0,0,0,2,1,-1,1,1
1461663809354866,0,0,0,-1,-1,-1,-1,-1
1461663809354866,0,5,0,-5,-3,-2,-2,-1
1461663809361853,0,0,2,-7,-8,-3,-2,2
1461663809361853,4,-2,2,11,8,1,1,1
1461663809377865,-6,8,-1,-2,-1,-1,0,-3
1461663809377865,-2,-6,-3,1,-2,-2,0,-2
1461663809383887,0,4,-3,-4,-1,-1,-3,-1
1461663809383887,1,1,-1,-3,-3,-1,-3,1
1461663809400921,-2,-3,-1,2,2,0,0,-1
1461663809400921,-1,-1,-2,-1,-1,0,-2,-2
1461663809401882,4,9,1,-3,1,-1,0,0
1461663809401882,-2,-9,-3,2,-1,-1,-1,-1
1461663809414908,-1,-2,2,0,1,0,0,-2
1461663809414908,-5,-14,1,3,-1,-2,-2,-2
1461663809421935,9,10,-1,-1,-1,-1,-2,-1
1461663809421935,1,4,-4,-4,0,-1,0,-2
1461663809436945,2,0,-5,-14,-8,-2,-3,-1
1461663809436945,-4,-5,5,10,3,-1,0,-1
1461663809443951,-1,-10,-6,-2,0,-1,1,2
1461663809443951,-2,8,0,-4,-4,-2,-1,0
1461663809460953,1,4,5,1,0,-1,-1,2
1461663809460953,11,16,0,-4,-1,2,-2,-1
1461663809461925,-15,-52,-8,0,-3,-8,-5,-3
1461663809461925,-4,3,-4,-2,-7,-20,-11,-2
1461663809474963,-5,1,0,-1,-1,18,9,-1
1461663809474963,3,5,4,0,4,18,6,0
1461663809481954,3,9,5,-2,4,1,0,1
1461663809481954,-8,-4,-8,-4,-3,5,3,0
1461663809496966,-4,-8,-1,7,2,-14,-7,-2
1461663809496966,-2,-8,-5,0,-3,-8,-4,-5
1461663809503970,7,12,1,-10,-6,3,2,1
1461663809503970,1,3,6,13,8,-4,-2,2
1461663809521005,-4,-3,-8,-10,-2,-2,-2,-2
1461663809521005,2,1,0,0,-2,-2,1,-4
1461663809521967,1,11,10,13,6,-2,-1,2
1461663809521967,-4,-10,-3,-2,-2,2,0,4
1461663809535015,-4,7,2,-2,-4,1,0,-4
1461663809535015,2,-4,-4,-6,-3,-6,-4,-7
1461663809541994,8,16,2,0,0,-4,-3,1
1461663809541994,-7,-4,-2,-8,-2,4,3,2
1461663809557030,-3,-5,1,5,2,1,0,0
1461663809557030,5,3,-3,0,-2,-7,-4,-8
1461663809566010,-4,6,-1,1,-1,1,-1,1
1461663809566010,-2,2,-3,1,0,5,2,2
1461663809581009,1,-6,-2,-2,-1,-5,-1,-2
1461663809581009,2,3,-1,-5,-4,-5,-3,-5
1461663809582010,4,0,-1,-2,-1,4,1,4
1461663809582010,-6,-8,0,2,3,3,-1,3
1461663809595050,0,1,-1,1,-1,-4,-3,0
1461663809595050,2,-5,-2,-9,-7,-4,-4,-6
1461663809602041,-5,-13,-1,11,6,2,2,1
1461663809602041,-2,2,-1,-5,-4,-2,-1,1
1461663809617033,-7,-9,0,0,0,0,-2,-2
1461663809617033,-1,14,5,11,3,0,-2,-4
1461663809624038,4,-1,-9,-16,-5,-3,-1,0
1461663809624038,0,1,0,7,-1,0,0,1
1461663809640062,-5,-13,-4,-6,-1,0,1,-1
1461663809640062,-2,-8,-3,-4,-3,-3,1,-6
1461663809642051,1,5,-1,-4,-3,-3,-2,0
1461663809642051,1,6,1,0,2,1,3,1
1461663809655072,-7,1,-3,-4,-2,-1,-2,-2
1461663809655072,0,-2,-5,-2,-3,-3,-3,-1
1461663809662065,0,7,4,5,2,3,0,1
1461663809662065,0,-5,0,-5,-2,0,5,2
1461663809677075,2,-2,-2,3,1,-2,-3,-2
1461663809677075,-8,-9,-1,-4,-1,-1,-1,-6
1461663809684093,1,4,-2,-8,-8,-3,-3,2
1461663809684093,-3,4,-1,0,-5,-1,-2,1
1461663809700152,-4,-10,-1,20,12,1,2,-2
1461663809700152,-2,10,1,1,1,-1,-4,-2
1461663809707156,0,-8,-5,-13,-6,-4,-2,-1
1461663809707156,0,6,2,0,1,-1,-3,0
1461663809715120,-2,2,0,-6,-6,-1,0,0
1461663809715120,-7,-19,-8,-3,-3,-1,-2,-5
1461663809722147,1,0,-1,-3,-1,1,-2,0
1461663809722147,-3,-9,-6,-10,-4,-3,-1,1
1461663809737158,6,2,3,4,0,-1,-3,0
1461663809737158,-5,2,1,-4,-1,-1,1,-4
1461663809744162,-4,-7,-3,1,3,2,8,1
1461663809744162,-1,-3,1,2,2,1,-10,0
1461663809760147,-1,15,3,0,-1,-4,-10,-7
1461663809760147,3,-9,-2,-5,-4,-5,-4,-1
1461663809762148,3,-5,-5,1,1,-3,-1,1
1461663809762148,-1,9,5,6,3,1,3,2
1461663809775160,-7,-8,-5,-11,-2,-1,2,-2
1461663809775160,-1,4,-1,-3,-3,-2,-2,-3
1461663809782180,1,-2,-1,-7,-4,1,-2,-1
1461663809782180,4,0,3,11,4,3,-1,1
1461663809797168,2,4,3,-5,-8,-4,3,-2
1461663809797168,-11,-7,-3,15,3,-1,0,-4
1461663809804229,3,1,0,-3,0,-1,0,2
1461663809804229,-2,-2,-2,-6,-1,-1,0,3
1461663809820198,-3,-11,-4,-3,-3,-2,-3,-2
1461663809820198,5,17,-1,-10,-2,0,-1,-1
1461663809822181,-4,-3,5,10,2,-2,3,2
1461663809822181,2,5,0,-4,-1,-1,-8,-2
1461663809835208,-2,-5,-1,4,3,1,1,-4
1461663809835208,2,5,-1,-1,-1,1,-3,-4
1461663809842207,0,2,0,0,0,1,-2,1
1461663809842207,5,0,-6,-6,-2,-2,6,4
1461663809857242,-2,-2,0,-4,-3,-2,5,2
1461663809857242,0,-12,3,5,5,2,-7,0
1461663809864220,-1,2,0,7,3,1,3,-1
1461663809864220,-8,-10,1,-5,-1,-3,-5,-6
1461663809880221,3,7,1,-6,-6,-3,-9,-1
1461663809880221,6,10,1,3,1,-1,10,4
1461663809882223,5,-12,-18,-14,-3,-3,-3,1
1461663809882223,-3,-1,8,18,8,4,4,2
1461663809894231,-15,-20,-10,-8,-3,0,0,-7
1461663809894231,4,-2,-3,-4,-7,-4,-5,-1
1461663809903236,0,2,3,-4,0,2,0,2
1461663809903236,-5,0,-15,-21,-9,-1,2,-5
1461663809917246,5,4,6,16,4,3,-9,-2
1461663809917246,-9,4,1,-2,-1,-2,-7,-3
1461663809924251,-1,-13,-2,10,0,-3,-6,-2
1461663809924251,0,-7,1,-7,-3,-3,1,-2
1461663809940319,7,23,1,1,3,3,10,0
1461663809940319,-7,-16,-4,-11,-2,2,11,2
1461663809942265,3,7,-2,-9,-4,-1,-10,1
1461663809942265,-7,-6,4,13,4,1,5,-4
1461663809954331,0,-1,-4,-8,-2,-1,-4,-4
1461663809954331,3,1,1,2,-2,-7,-20,-7
1461663809963381,2,5,6,8,-1,-5,-3,3
1461663809963381,-1,-8,-10,-11,-7,-2,-2,0
1461663809977390,-1,-6,-8,-7,-1,-1,2,-2
1461663809977390,5,3,-5,-17,-11,-2,7,0
1461663809984383,0,-5,15,19,0,-2,-5,1
1461663809984383,-3,8,16,16,15,8,7,2
1461663810000453,-9,11,-8,9,-1,-2,10,-2
1461663810000453,-4,-41,-12,0,2,1,-8,-2
1461663810002429,2,18,-9,-18,-4,-1,0,2
1461663810002429,1,5,1,-9,-8,-3,4,-1
1461663810014416,-2,-7,4,-2,-1,0,1,-2
1461663810014416,-2,7,2,3,1,-1,-11,-4
1461663810023412,-3,-3,-5,-4,-4,-9,-4,0
1461663810023412,0,-5,-1,-10,-4,3,24,9
1461663810037480,4,6,2,-3,0,5,-16,-1
1461663810037480,6,9,-6,-5,-9,-12,-14,-14
1461663810044485,-5,-6,-8,-16,-6,-9,-16,-4
1461663810044485,3,16,7,28,10,-7,-14,-4
1461663810060449,-6,0,-4,-13,-6,-4,10,0
1461663810060449,-2,-3,6,3,3,9,17,2
1461663810062451,-3,-7,0,-14,-2,11,24,5
1461663810062451,10,11,11,18,-1,-1,-6,11
1461663810074506,-1,-2,-10,18,11,4,-6,-6
1461663810074506,-9,-9,8,11,11,1,-10,-8
1461663810089517,-9,7,-14,-12,-5,3,29,1
1461663810089517,-7,-18,13,11,10,3,-28,-5
1461663810097522,2,10,6,-8,-11,-11,-18,-8
1461663810097522,1,5,1,15,2,-1,4,3
1461663810104616,3,1,8,18,10,5,5,1
1461663810104616,15,11,-14,-24,-7,9,38,1
1461663810120628,-15,-31,-4,-6,-1,6,6,8
1461663810120628,-26,-2,-10,-12,-14,-22,-35,-12
1461663810122630,12,10,-1,1,0,0,-3,7
1461663810122630,13,-2,-3,-24,-17,-16,-49,-5
1461663810134636,5,12,1,18,8,-11,-16,-14
1461663810134636,2,2,-2,-14,-3,7,8,3
1461663810143645,-7,-12,-13,-30,-10,8,30,4
1461663810143645,-2,10,15,28,6,4,20,5
1461663810157654,-10,-17,-18,-4,-1,-5,4,6
1461663810157654,-13,-13,14,-6,-9,-2,-7,-1
1461663810164612,8,14,13,36,22,-3,-33,-12
1461663810164612,-13,-17,-23,-31,-4,9,55,-1
1461663810180641,1,-23,-1,-5,-8,1,-17,-1
1461663810180641,21,36,6,3,2,2,-18,7
1461663810186621,-8,-33,0,-8,-7,-1,-16,-9
1461663810186621,-17,1,11,16,-4,-13,-23,-4
1461663810194651,-4,-5,-8,-29,-17,-4,21,-1
1461663810194651,2,6,-8,0,15,13,27,16
1461663810203644,-8,-4,21,11,0,7,32,1
1461663810203644,12,10,-32,-21,-6,-8,-29,-8
1461663810217654,-11,6,-7,-28,-18,-14,-23,-14
1461663810217654,-10,-18,-5,9,0,-14,-32,7
1461663810224659,18,23,23,35,8,-5,-6,-2
1461663810224659,7,-20,-12,-36,-18,11,46,2
1461663810239714,-4,24,-2,6,25,12,-12,-3
1461663810239714,1,18,12,-4,-25,-22,-23,-12
1461663810246717,-21,-24,-10,18,21,3,-1,2
1461663810246717,-7,-21,-8,-14,3,4,22,1
1461663810254677,17,-2,0,28,17,22,48,9
1461663810254677,-1,3,14,4,-6,-4,2,0
1461663810262773,7,3,15,11,-2,-11,-33,4
1461663810262773,-2,49,8,-5,-5,-2,-42,-12
1461663810277783,-30,-51,-21,20,11,-2,4,-16
1461663810277783,31,-12,1,-20,3,24,70,12
1461663810283775,6,-44,-22,-16,-1,8,-45,3
1461663810283775,-20,-70,-14,-23,-18,-6,81,0
1461663810299850,-18,-91,9,18,1,0,-5,19
1461663810299850,-19,26,-3,4,-18,-41,-92,-42
1461663810306855,4,102,-32,-34,-14,-12,15,1
1461663810306855,11,127,13,-18,5,24,-57,-14
1461663810314805,39,127,35,31,9,-19,-29,-12
1461663810314805,-11,97,-35,-67,-26,-11,23,10
1461663810322834,-7,96,40,60,-4,2,22,6
1461663810322834,9,13,-23,25,28,11,18,8
1461663810338815,-16,-31,-5,-3,0,13,43,12
1461663810338815,-1,-98,-21,-23,4,10,-13,4
1461663810343825,-13,-95,46,-58,-41,-17,3,-16
1461663810343825,15,-16,-12,73,50,11,-15,4
1461663810358830,-10,-112,-22,-66,-37,-10,7,0
1461663810358830,22,-99,70,95,36,8,31,13
1461663810366836,-20,-120,-65,-33,9,-8,-23,-8
1461663810366836,2,-128,15,14,-10,-19,-24,5
1461663810382901,7,-86,19,-65,-29,-9,-59,-25
1461663810382901,21,85,-14,32,27,24,22,2
1461663810382901,-15,42,-3,-18,-12,21,24,4
1461663810382901,-37,-4,-15,39,14,-2,-21,-9
1461663810397890,-9,127,14,-29,-31,-43,-49,-6
1461663810397890,53,62,-7,-36,-24,-15,24,9
1461663810403920,-34,23,4,28,19,3,-20,8
1461663810403920,-29,85,-15,-73,-30,1,57,2
1461663810421876,2,83,8,37,22,19,-23,-23
1461663810421876,20,107,24,48,18,-3,6,2
1461663810426891,9,117,-25,-93,-6,19,66,23
1461663810426891,-20,4,4,-58,-44,-27,-63,-14
1461663810442904,34,-66,-48,16,27,6,5,0
1461663810442904,-37,-101,-28,82,29,16,-4,-21
1461663810442904,-14,-77,46,44,46,17,8,12
1461663810442904,20,-45,11,-12,-9,-12,9,20
1461663810457928,-4,-21,-77,-71,-29,-3,59,9
1461663810457928,37,-63,33,54,-5,-4,4,-7
1461663810463902,-46,-4,36,77,64,64,20,12
1461663810463902,-39,13,-21,29,4,-32,-97,-42
1461663810480926,19,5,-9,-26,-3,-40,-65,-11
1461663810480926,-25,-65,-25,-91,-41,-11,-12,-9
1461663810486933,37,-17,-3,-27,-30,-14,37,-8
1461663810486933,26,38,1,-11,15,45,31,21
1461663810502964,35,-8,17,19,-35,-69,-56,5
1461663810502964,-33,-35,-18,-43,-10,1,-6,14
1461663810502964,-10,11,-8,15,-9,2,-30,-13
1461663810502964,-7,17,-16,-51,-22,-14,11,-18
1461663810518066,22,0,16,30,4,32,53,5
1461663810518066,-21,-19,15,-45,0,4,-6,1
1461663810524099,66,6,11,-33,19,0,-8,23
1461663810524099,-54,10,-14,-48,-36,-35,-70,-26
1461663810541100,1,-11,26,92,93,62,61,-2
1461663810541100,38,-17,4,-60,9,11,-45,6
1461663810547088,50,8,29,90,27,-44,-29,4
1461663810547088,-74,7,3,-44,-26,3,38,2
1461663810562096,33,14,-19,-89,-61,12,-28,19
1461663810562096,-32,-39,-25,93,43,-26,-46,-26
1461663810563097,56,18,-38,-36,-37,-78,-68,-46
1461663810563097,41,25,36,69,25,43,57,-19
1461663810585116,-128,-10,-10,-21,-7,41,32,63
1461663810585116,67,-41,-27,-72,-34,22,33,62
1461663810586131,-60,10,-1,-15,-33,-18,-10,-53
1461663810586131,-2,26,44,44,23,-24,-5,-44
1461663810601130,43,-14,-18,1,-4,2,48,30
1461663810601130,82,-21,-75,-114,-47,-6,10,61
1461663810607157,-2,12,79,89,12,1,-3,-15
1461663810607157,-53,27,24,0,27,39,39,-64
1461663810622158,63,-17,-2,-63,-45,4,-39,2
1461663810622158,54,-25,67,51,22,-32,-36,43
1461663810623144,113,15,-46,-18,5,-42,-42,-41
1461663810623144,-57,24,33,-92,-22,-4,-8,-18
1461663810645155,-122,-18,-7,18,36,9,-44,32
1461663810645155,64,-9,-47,-87,-44,-18,79,5
1461663810646156,-128,5,40,56,32,76,67,-18
1461663810646156,49,1,52,-1,1,-35,-80,-21
1461663810661178,13,-11,-27,24,11,-32,-62,-9
1461663810661178,-16,12,-1,3,2,33,29,46
1461663810667183,15,-15,-39,-46,-28,13,72,-46
1461663810667183,-45,14,-46,30,7,1,-21,-11
1461663810682192,9,5,23,-34,-33,-40,-1,44
1461663810682192,42,-28,-12,17,9,36,20,14
1461663810683182,109,21,-3,-37,-2,-22,-58,-13
1461663810683182,-40,31,-8,-40,-30,-6,30,-3
1461663810705209,-29,-26,23,127,44,11,46,10
1461663810705209,9,-11,29,-58,-4,8,-24,-6
1461663810706210,-50,15,-42,-108,-10,8,0,-52
1461663810706210,21,24,-22,23,-18,-41,-35,-5
1461663810719246,82,-22,38,52,47,16,78,51
1461663810719246,-23,-25,-14,-40,2,15,6,18
1461663810727225,-40,11,31,90,16,20,-10,-44
1461663810727225,1,30,-42,13,8,14,21,-32
1461663810742228,75,-22,39,-34,-9,14,10,38
1461663810742228,-75,-4,-3,29,11,2,-13,41
1461663810743225,-61,10,-38,24,-4,-19,-38,-33
1461663810743225,23,26,14,2,-19,-19,-4,-2
1461663810758235,-105,1,-30,-82,-30,2,-36,-32
1461663810758235,84,-15,10,63,7,4,3,-2
1461663810764258,-74,19,0,-121,-44,1,44,2
1461663810764258,61,18,8,70,44,-1,-110,-10
1461663810781254,110,-14,-39,-70,-19,-14,11,38
1461663810781254,-128,-8,6,68,8,-11,3,-27
1461663810786257,-37,30,35,38,1,2,3,-42
1461663810786257,-17,10,-27,-86,18,27,70,-9
1461663810802267,109,-18,5,88,51,1,0,21
1461663810802267,-66,-15,-1,-10,4,10,68,16
1461663810803268,14,4,-41,-105,-55,-34,-76,-11
1461663810803268,88,24,-17,88,33,-5,-24,-1
1461663810825318,-73,-8,4,-48,-29,12,17,9
1461663810825318,24,20,-22,-22,-21,-25,-55,-3
1461663810825318,-56,7,2,27,-15,-31,-47,2
1461663810825318,26,15,19,-32,-15,22,49,16
1461663810840358,-91,-11,-28,-32,-14,-12,-36,-39
1461663810840358,48,14,-36,-10,-36,-36,-6,-8
1461663810847335,29,5,18,42,25,26,15,-10
1461663810847335,14,33,30,-56,8,3,-23,7
1461663810862346,66,-19,-17,-85,-68,-9,39,41
1461663810862346,-55,9,113,116,127,59,40,-10
1461663810863347,1,18,12,-76,-22,5,55,-20
1461663810863347,-119,11,17,-13,5,33,56,9
1461663810885362,82,-6,-50,22,23,3,-85,-31
1461663810885362,79,2,-34,-127,-37,-58,-24,-3
1461663810885362,-13,19,12,52,26,-6,-32,-4
1461663810885362,-14,-7,3,20,-4,-2,38,10
1461663810900371,36,5,14,-36,-27,-33,3,6
1461663810900371,-26,17,-11,-8,-36,16,-47,-25
1461663810906375,21,-3,-17,-8,0,19,20,26
1461663810906375,-49,13,-64,-38,-22,-8,-30,-16
1461663810922386,4,-3,57,3,-40,-32,-34,6
1461663810922386,30,11,-15,-35,-4,0,13,-28
1461663810923386,-8,3,28,54,57,23,41,6
1461663810923386,-62,18,-42,-107,-82,-21,-23,7
1461663810944403,17,-10,44,126,64,8,1,27
1461663810944403,-3,18,18,-17,27,6,43,-8
1461663810945402,2,24,-7,-52,-7,31,9,-24
1461663810945402,69,-5,-40,-56,-13,-24,0,19
1461663810960413,35,7,28,52,4,9,16,11
1461663810960413,73,-6,-5,-3,-14,9,-25,8
1461663810966417,-58,0,-41,-13,-26,-51,-98,-21
1461663810966417,11,-12,1,43,-2,-12,-74,3
1461663810982441,36,2,-29,-90,-22,-24,4,20
1461663810982441,56,13,42,48,18,23,34,11
1461663810983442,47,16,8,13,16,21,33,-5
1461663810983442,-26,6,19,7,-8,-9,32,-1
1461663811004504,-128,-1,-27,-62,-7,3,-18,-54
1461663811004504,-77,16,-27,-39,1,-3,-14,-26
1461663811011479,11,11,-17,-57,-42,-19,20,-8
1461663811011479,61,16,67,70,48,20,18,13
1461663811020486,-31,2,12,-52,-8,10,48,32
1461663811020486,-4,16,-57,20,3,-19,-60,-51
1461663811026489,30,12,8,-67,-18,22,114,48
1461663811026489,-28,13,-41,17,18,12,-26,-26
1461663811042471,-5,0,12,61,11,-5,-62,-7
1461663811042471,15,24,-15,-54,-44,-28,-34,16
1461663811043472,-31,0,-21,17,-12,-33,-72,-15
1461663811043472,-41,9,12,-1,-17,-19,35,23
1461663811064547,-11,4,6,7,11,57,84,-15
1461663811064547,-16,22,4,-31,-21,-27,-57,-26
1461663811065509,94,0,33,66,55,-6,-49,10
1461663811065509,19,11,13,37,37,16,21,23
1461663811080513,-128,0,-16,-12,-7,-3,0,-40
1461663811080513,60,21,49,25,2,43,91,3
1461663811086518,-51,15,13,45,-2,-13,-29,-36
1461663811086518,57,7,11,-63,-38,-24,-7,19
1461663811102526,68,1,-48,67,18,-9,-19,32
1461663811102526,-75,12,8,54,32,15,29,-12
1461663811103526,-18,13,-15,-87,-38,5,20,3
1461663811103526,5,8,-11,-7,5,17,-9,-34
1461663811124588,79,5,3,-13,-5,-19,-60,10
1461663811124588,-37,-4,3,-22,-23,-34,-25,26
1461663811125530,-4,2,-12,11,6,-5,-9,6
1461663811125530,-49,4,8,-55,-59,-16,-16,9
1461663811140559,54,0,11,0,24,4,-24,-12
1461663811140559,-10,16,14,2,12,5,27,-5
1461663811146606,4,1,-8,16,23,6,19,13
1461663811146606,-34,7,7,15,21,10,2,14
1461663811161570,-26,1,-18,-49,-31,-14,-24,-32
1461663811161570,53,13,-45,24,-4,-2,-23,-19
1461663811169581,-34,25,20,-44,-7,12,26,11
1461663811169581,12,-9,-4,21,45,9,7,10
1461663811184606,-1,4,47,-41,-39,-23,22,12
1461663811184606,0,22,-2,8,21,15,-14,-34
1461663811185604,38,4,-13,-37,-17,9,29,8
1461663811185604,-65,4,-8,33,2,-9,-19,-5
1461663811200608,-63,4,-9,-51,-23,-26,-2,-5
1461663811200608,20,20,22,-3,-6,10,-11,-4
1461663811206669,113,3,-4,14,5,8,10,27
1461663811206669,17,17,21,-5,-4,2,-1,40
1461663811221679,-109,2,-18,11,6,11,-44,-49
1461663811221679,-38,11,-14,-22,-20,-7,-9,-39
1461663811229638,-41,10,-16,3,19,14,-9,-12
1461663811229638,94,0,58,14,9,-7,55,29
1461663811244695,52,5,19,100,61,23,48,26
1461663811244695,-20,12,0,-10,8,-6,3,-7
1461663811245640,-21,11,-2,-25,-25,-4,-12,-6
1461663811245640,24,-5,-23,5,-2,8,1,-2
1461663811261661,8,5,25,62,55,21,23,22
1461663811261661,8,15,40,17,11,-2,-6,-14
1461663811266657,-32,-15,-4,10,17,1,-4,5
1461663811266657,-10,-20,-28,-31,-23,-13,-14,-24
1461663811281675,39,-1,-2,-27,-18,-10,32,21
1461663811281675,-30,34,-17,-27,-24,-61,-46,-6
1461663811289689,3,-28,-7,-12,-21,-38,-49,-17
1461663811289689,-42,-26,-4,20,4,46,53,9
1461663811304738,-16,6,-8,-29,-8,34,-47,-15
1461663811304738,48,15,14,10,11,28,93,28
1461663811305683,-53,-12,-15,-9,-10,-30,19,18
1461663811305683,26,-44,-2,-1,3,-24,-27,-13
1461663811320693,29,-3,-3,-12,-2,-1,20,3
1461663811320693,-36,-89,-17,-84,-33,-18,-16,-6
1461663811326696,0,-103,13,41,9,3,-17,-11
1461663811326696,24,-26,23,88,53,11,5,12
1461663811341707,-4,127,-2,-16,0,-9,6,1
1461663811341707,-4,127,-6,0,-10,0,-25,-16
1461663811349730,-1,99,-22,-40,-13,10,12,2
1461663811349730,9,55,-6,-19,-4,5,-12,5
1461663811364734,19,127,16,-3,-9,-19,-9,-5
1461663811364734,-20,116,8,15,0,3,10,0
1461663811365726,-19,-115,-8,-7,-7,2,-22,0
1461663811365726,-49,-128,-19,-24,-15,-25,-39,-8
1461663811380732,-25,-33,-2,-7,-3,-7,31,-9
1461663811380732,37,-68,4,6,8,61,28,19
1461663811386796,8,-32,4,7,6,14,-17,-3
1461663811386796,24,-16,2,1,10,41,-10,14
1461663811401808,-14,54,-2,-14,-11,-20,16,-25
1461663811401808,-11,4,-11,12,-11,-15,0,-1
1461663811409754,4,-5,-11,-36,-11,-5,36,12
1461663811409754,10,-13,-3,-4,10,-19,-11,2
1461663811426768,-7,24,16,18,11,15,10,-5
1461663811426768,-12,16,-6,14,17,-5,-6,-6
1461663811427771,17,-2,-3,27,2,-5,-11,25
1461663811427771,12,-18,-14,-35,-30,-13,-1,-10
1461663811440776,-6,-25,-7,-16,-10,7,-4,-46
1461663811440776,-9,-52,-2,5,-1,-9,-9,6
1461663811446798,46,-38,7,-6,-9,-6,-13,50
1461663811446798,-19,-1,-12,-12,-7,-7,12,-1
1461663811461804,-55,-6,-4,2,-2,-1,-13,-54
1461663811461804,-46,-25,-14,-4,-3,15,-20,-19
1461663811468854,38,-105,7,7,14,-13,28,64
1461663811468854,44,-75,9,9,1,26,16,18
1461663811484819,-7,68,-12,-10,-1,-12,-6,-48
1461663811484819,-19,117,4,-2,0,-22,-11,-7
1461663811485808,24,127,10,11,5,27,11,42
1461663811485808,23,100,2,-1,-4,-9,5,8
1461663811500833,-25,30,-3,-13,-7,-1,1,-39
1461663811500833,-10,2,-4,5,4,-8,-12,-12
1461663811506881,10,4,1,14,6,-5,-6,28
1461663811506881,13,-26,11,-7,-6,-12,-7,-6
1461663811521900,-17,-20,-9,-18,-12,3,-1,-36
1461663811521900,-10,-18,-12,12,11,4,8,8
1461663811528898,6,-11,3,18,10,7,-1,20
1461663811528898,7,-23,-11,-3,2,-1,-4,-1
1461663811544954,-6,-5,16,1,2,1,0,-23
1461663811544954,-8,0,20,9,-3,-7,2,7
1461663811545900,-4,-15,-8,-15,-7,-8,-9,9
1461663811545900,18,-15,-2,-2,2,17,14,6
1461663811560920,-12,-47,-8,0,-3,-37,-17,-24
1461663811560920,-3,-13,1,-9,-5,28,-1,4
1461663811566924,4,12,8,-2,-4,-10,-2,10
1461663811566924,10,-1,-6,-1,0,0,1,2
1461663811581935,-5,-9,-5,-5,-1,12,5,-15
1461663811581935,-7,6,-1,-1,-1,-12,-3,3
1461663811588986,4,2,0,1,2,2,3,16
1461663811588986,0,-1,-8,-4,-2,0,1,-3
1461663811604998,-6,3,2,2,-2,-5,-7,-20
1461663811604998,-4,17,11,4,1,-4,4,9
1461663811605954,4,24,2,-4,1,10,-1,13
1461663811605954,-2,-7,-10,2,-1,-10,-3,-2
1461663811620963,-3,8,10,-8,0,7,-1,-15
1461663811620963,-2,-7,-9,-3,-2,4,5,3
1461663811626967,-3,-9,-24,-8,-6,0,-3,9
1461663811626967,-5,11,18,-3,-5,-6,-6,-7
1461663811641965,-2,4,-5,-1,-4,5,-1,-12
1461663811641965,-4,1,2,1,2,-6,2,4
1461663811648982,8,4,-5,-5,-4,-6,-6,9
1461663811648982,5,8,6,6,4,2,0,-2
1461663811664999,-9,-10,-7,4,4,15,2,-11
1461663811664999,-5,-11,-7,-6,-5,-19,-6,2
1461663811666000,-2,-4,-5,1,2,17,6,6
1461663811666000,5,4,9,3,-1,-17,-3,-1
1461663811681005,0,-3,13,3,1,14,4,-9
1461663811681005,1,-11,-6,0,-2,-7,1,4
1461663811687036,2,-1,-2,1,2,-4,0,8
1461663811687036,-9,-8,-12,-7,-3,1,-4,-9
1461663811702073,3,14,4,2,-1,-7,0,-7
1461663811702073,-5,-16,-22,-1,-1,0,1,2
1461663811709042,-1,-2,10,2,2,0,-2,5
1461663811709042,4,6,-5,-5,-2,0,1,-1
1461663811725025,-6,-3,-22,-20,-5,-4,-3,-11
1461663811725025,3,12,32,20,18,5,4,4
1461663811726040,1,-7,3,5,1,-2,-2,2
1461663811726040,-1,-2,-1,-1,-3,1,-3,-5
1461663811741037,1,11,10,2,-5,-5,-4,-8
1461663811741037,1,-11,-23,-15,-9,-2,0,4
1461663811747052,-1,-4,-4,0,-1,3,0,1
1461663811747052,-4,-14,-6,-4,-1,-2,-3,-3
1461663811762065,0,4,12,4,2,2,1,-5
1461663811762065,-1,5,13,-3,-5,-3,-3,2
1461663811769070,2,-3,-10,0,1,-5,-2,3
1461663811769070,1,-3,-1,0,-2,-11,-5,-4
1461663811785068,-1,-12,-14,0,1,17,2,-4
1461663811785068,-1,-2,-9,1,3,5,2,2
1461663811786069,-2,5,20,-4,-5,-4,-2,2
1461663811786069,0,-2,16,2,3,-5,-1,-2
1461663811801080,-4,-14,0,3,-1,-12,-5,-3
1461663811801080,-5,-7,-19,-5,-4,6,1,0
1461663811807142,0,-8,-30,-4,2,1,-1,1
1461663811807142,2,8,15,6,0,10,0,-5
1461663811822154,0,3,4,2,-4,-10,-3,-4
1461663811822154,-1,7,17,-3,-1,5,1,0
1461663811829113,0,1,-10,0,-2,-11,-2,4
1461663811829113,0,4,4,-1,-2,-2,-1,-3
1461663811845166,2,-1,1,2,0,-1,-2,-1
1461663811845166,2,5,8,4,0,-8,-1,1
1461663811846111,-1,1,12,-4,-2,5,1,-1
1461663811846111,-2,-15,-22,-1,0,-2,-2,-4
1461663811869156,0,-4,-7,-7,-3,-3,0,-2
1461663811869156,-2,-5,0,-2,-2,-1,-2,2
1461663811870130,0,1,1,6,3,1,0,1
1461663811870130,-3,-5,-4,0,-1,2,1,-3
1461663811882137,-5,-13,-5,-1,-1,-7,-2,-1
1461663811882137,4,-5,-21,4,5,6,1,2
1461663811889197,-2,-3,8,-15,-8,2,0,-4
1461663811889197,1,16,29,-2,-7,-9,-6,-4
1461663811905210,-1,8,10,6,3,4,0,1
1461663811905210,-8,-28,-50,-13,-5,-5,-1,-2
1461663811906154,4,3,8,6,1,-6,-3,1
1461663811906154,-6,-9,-17,-1,4,22,4,0
1461663811927168,-5,8,11,-2,-2,-5,-4,-2
1461663811927168,3,5,12,1,1,-3,-3,0
1461663811928167,3,-6,-7,0,1,3,-2,-2
1461663811928167,-2,-3,-6,-3,-5,-8,-2,-3
1461663811942193,-8,-13,-9,-3,0,1,-2,-1
1461663811942193,1,2,4,1,1,-3,-1,-2
1461663811949241,3,-5,-13,-13,-7,-5,-1,-1
1461663811949241,-2,-2,31,29,14,3,0,0
1461663811965208,-9,-8,-8,-7,-3,4,2,-2
1461663811965208,2,6,25,-2,-2,-4,-2,1
1461663811966209,5,10,-3,2,-1,3,1,0
1461663811966209,-6,-27,-44,-14,-7,-2,-2,-4
1461663811981211,-3,1,4,2,0,-6,-2,2
1461663811981211,3,6,15,4,-2,0,1,0
1461663811987240,3,3,-2,2,1,-3,1,1
1461663811987240,-3,13,19,-4,-4,1,1,-2
1461663812003221,-4,-7,-9,-2,-3,-5,-5,-3
1461663812003221,3,10,12,-2,-2,9,4,1
1461663812010227,-2,-8,-13,3,4,-1,1,0
1461663812010227,-5,-6,-21,-10,-5,-4,-1,-2
1461663812025236,-1,-1,6,1,1,-3,-2,-2
1461663812025236,1,3,-1,-1,-1,-2,-3,2
1461663812026238,-2,-5,-9,0,-1,0,-1,-1
1461663812026238,-1,1,-2,-3,-2,-7,-7,-5
1461663812047252,2,2,-12,6,1,2,-1,0
1461663812047252,-4,-10,0,1,0,-3,-3,1
1461663812048252,-2,-2,25,0,-2,1,2,0
1461663812048252,3,11,21,-2,-3,-1,1,-2
1461663812062262,2,-6,-12,-4,-3,-1,1,0
1461663812062262,0,2,-4,3,1,0,-2,1
1461663812069268,-2,-3,-4,3,2,0,-2,-1
1461663812069268,0,1,-12,-4,-1,-3,-1,-2
1461663812084277,4,4,6,0,1,0,-1,0
1461663812084277,-1,0,1,0,-1,-1,1,2
1461663812091341,-5,-1,-4,-4,-2,-5,-2,0
1461663812091341,-2,0,-4,-2,-1,4,2,-3
1461663812101307,-1,3,2,-4,0,-1,-2,0
1461663812101307,-1,-1,1,-1,0,-2,-2,1
1461663812107311,-4,1,14,2,-3,0,-2,-2
1461663812107311,-2,-7,-8,-9,-2,-7,-3,-3
1461663812122306,6,2,0,6,5,1,0,2
1461663812122306,0,-2,-2,-12,-6,-2,-1,0
1461663812129309,-3,-3,-1,23,9,1,0,1
1461663812129309,-5,-2,-9,0,-2,-2,-1,-3
1461663812144379,-1,-8,-6,-5,-7,-2,-2,-2
1461663812144379,2,6,6,-1,-3,-3,-1,2
1461663812151326,-1,-2,0,-7,-2,0,-2,-2
1461663812151326,-1,2,-1,-5,-6,-3,0,-4
1461663812160344,0,1,-6,3,0,-2,-1,0
1461663812160344,8,13,4,-1,0,-1,1,1
1461663812167351,-8,-20,2,-6,-1,-1,0,-2
1461663812167351,-11,-7,-11,0,-1,-1,-2,-1
1461663812182377,-1,-8,-10,-7,-3,-4,-1,0
1461663812182377,-4,-1,3,1,-1,3,2,-3
1461663812189382,2,8,4,-1,0,2,-1,-2
1461663812189382,2,1,-8,1,2,-4,-2,-1
1461663812204426,2,4,17,-1,-2,-4,-1,0
1461663812204426,-4,-6,-18,-2,-1,-6,-4,0
1461663812212401,-3,-1,-9,-6,-2,8,4,-1
1461663812212401,-2,-10,-12,-9,-4,-5,-1,-4
1461663812227388,3,5,4,2,-1,3,1,1
1461663812227388,-1,-3,9,4,1,2,-2,-1
1461663812228388,-3,3,-3,1,2,-3,-1,-1
1461663812228388,0,4,3,-2,-2,-1,-2,-2
1461663812241397,3,-5,-15,-7,-5,-4,-1,2
1461663812241397,-8,-9,0,3,1,-1,0,-1
1461663812249397,-2,1,-4,-9,-6,0,-1,-2
1461663812249397,4,0,3,4,2,-2,-2,-1
1461663812264408,1,2,8,4,0,-2,-2,1
1461663812264408,-5,-7,-23,-13,-6,0,-1,-3
1461663812271410,3,16,10,-1,-2,-2,2,1
1461663812271410,1,-7,-3,-3,-1,-2,-1,-4
1461663812287421,0,-5,-7,-6,-4,-2,-2,-1
1461663812287421,0,3,13,3,0,0,-1,1
1461663812288423,-2,-1,0,6,2,-1,-2,-2
1461663812288423,-1,0,3,7,-1,1,-1,-3
1461663812301433,1,0,-4,-4,1,0,-2,-1
1461663812301433,-3,1,5,-6,-5,-2,0,-2
1461663812309437,1,5,8,19,13,2,1,1
1461663812309437,-6,-8,2,-2,-1,0,-1,-1
1461663812324449,-3,-5,-7,0,-2,-1,-1,-1
1461663812324449,0,2,4,4,2,-1,-2,-1
1461663812331452,-2,3,2,-6,-7,-3,-1,-2
1461663812331452,-6,-4,-9,-3,-2,0,-3,-5
1461663812347522,0,-4,-4,3,-1,-1,-1,0
1461663812347522,3,8,7,0,-1,-1,1,1
1461663812348466,0,2,2,-4,-4,-3,-2,-1
1461663812348466,-2,-12,-14,2,2,1,-1,-3
1461663812361486,-3,-5,-3,-11,-6,-4,-3,-3
1461663812361486,3,-2,0,3,2,2,0,-2
1461663812369480,-1,2,-4,-9,-5,-1,0,-1
1461663812369480,-10,-17,-7,-2,0,0,-3,3
1461663812384502,3,4,1,1,-1,-1,-1,4
1461663812384502,1,-3,1,3,0,1,-1,-3
1461663812391653,3,0,-2,-4,-5,-2,-2,-3
1461663812391653,-1,7,2,-6,-4,-2,-2,-1
1461663812408603,0,6,8,4,2,0,-1,0
1461663812408603,-3,-12,-10,-1,-1,-3,-1,-3
1461663812409599,-2,-7,-7,-4,-2,-1,1,-6
1461663812409599,-3,5,4,-4,-6,-3,-2,1
1461663812422637,-3,-4,0,4,-1,1,-2,1
1461663812422637,-1,7,6,-1,1,-1,-1,-3
1461663812430640,-2,-4,-4,1,0,-1,-1,-4
1461663812430640,0,2,1,-4,-4,-1,-1,1
1461663812444650,-6,-14,-14,-9,0,2,0,0
1461663812444650,0,-1,0,0,0,-4,-2,-1
1461663812451692,-1,6,5,1,2,1,-1,-2
1461663812451692,2,8,11,3,1,-3,0,-1
1461663812467660,2,0,-12,-2,-3,0,-1,0
1461663812467660,1,1,-6,-4,-6,-2,-1,1
1461663812474707,-3,-1,1,5,1,1,-1,1
1461663812474707,-1,-4,-2,0,-3,-2,-1,-1
1461663812483665,5,10,7,2,-1,-2,-2,0
1461663812483665,0,-4,0,-2,-1,-1,0,0
1461663812489717,3,-2,1,-5,-2,-4,-2,-1
1461663812489717,-8,-5,-1,-3,-3,-1,-4,-4
1461663812504727,3,2,-2,-2,-1,-2,-1,1
1461663812504727,-4,-2,8,2,0,1,-2,-1
1461663812511778,-1,-6,-6,0,3,2,1,-1
1461663812511778,-2,1,-2,-2,-1,-2,-2,-2
1461663812527789,-2,-11,1,-3,-3,-2,0,-1
1461663812527789,2,5,-2,5,2,1,1,2
1461663812527789,-5,-2,6,-1,0,-2,-3,-3
1461663812527789,-3,-1,-5,-2,-2,2,0,-3
1461663812543804,2,6,4,0,-2,-3,-1,1
1461663812543804,3,2,-1,-1,1,0,0,0
1461663812549793,-3,0,-8,-6,-4,0,1,-1
1461663812549793,2,2,1,-4,-2,-1,-2,-1
1461663812563816,4,6,8,10,6,1,-1,0
1461663812563816,-3,-8,0,-1,-1,1,-1,-1
1461663812571867,-4,-1,2,-2,-3,-3,-2,-2
1461663812571867,-3,0,2,4,3,0,1,-3
1461663812587878,1,-2,0,-6,-3,-1,0,0
1461663812587878,0,3,2,2,2,-1,-2,0
1461663812587878,-4,-6,-16,-5,-4,0,-1,-2
1461663812587878,1,3,-1,-2,-3,-4,-1,-1
1461663812603847,-5,-6,-2,-1,0,-2,-1,1
1461663812603847,1,2,3,2,0,3,1,0
1461663812608835,-3,1,1,-1,-2,-1,1,-2
1461663812608835,-3,-4,-4,5,0,-3,-2,-4
1461663812623845,-1,-2,-2,0,-1,-1,1,1
1461663812623845,3,4,7,-2,-3,1,1,-1
1461663812631851,-1,5,-2,5,0,-3,-2,-2
1461663812631851,-5,-17,-6,0,-2,1,0,-1
1461663812648869,3,5,-3,-2,-3,-1,0,2
1461663812648869,-3,-7,-6,-5,0,1,-1,1
1461663812649864,-1,-2,4,3,3,1,0,-2
1461663812649864,2,4,-1,-2,-2,-5,-2,-2
1461663812662874,2,-1,-4,-4,-3,-2,-2,0
1461663812662874,1,2,5,5,3,0,0,3
1461663812668889,-2,7,-2,-2,-1,-1,-3,-2
1461663812668889,-4,-8,-15,-1,-3,-1,-1,-4
1461663812683888,2,2,9,1,1,1,-1,-1
1461663812683888,-1,-2,-9,-6,-3,-2,-1,-1
1461663812691893,-3,-5,-6,-1,1,0,0,-1
1461663812691893,2,1,2,-2,-1,-1,-2,-2
1461663812707940,-3,-2,-8,-3,-2,-2,0,-1
1461663812707940,0,4,-1,-1,0,-3,-1,1
1461663812707940,-5,-4,3,-3,-5,-2,-1,-3
1461663812707940,0,-2,-1,3,1,3,0,-1
1461663812722980,1,-6,-4,-2,-3,2,1,1
1461663812722980,-2,-1,0,-8,-2,0,-1,-1
1461663812728932,-5,2,11,9,5,0,-1,-2
1461663812728932,0,-1,-4,0,3,0,0,-1
1461663812743931,2,-2,-3,-2,-1,-3,0,1
1461663812743931,-3,-2,0,3,0,-1,0,1
1461663812759943,1,1,-3,-7,-5,-3,-1,-2
1461663812759943,-1,-4,-1,-7,-3,-2,-1,-3
1461663812766958,1,7,2,1,3,1,-1,1
1461663812766958,2,2,-1,4,-1,-3,-1,1
1461663812767948,-6,3,11,5,2,0,0,-1
1461663812767948,4,4,3,-3,-2,-4,-3,-3
1461663812782962,-3,-5,-6,-5,-4,-3,-1,-1
1461663812782962,0,-1,-7,-4,-2,-1,0,0
1461663812788968,-5,-7,-2,-4,-4,-2,-2,-2
1461663812788968,-1,2,3,1,3,-1,-2,-2
1461663812804044,4,-4,-4,-2,-2,-2,-1,2
1461663812804044,-3,-1,-1,1,0,-1,0,-1
1461663812812003,-1,-1,-6,-1,-3,-2,0,-2
1461663812812003,-2,1,6,-1,-2,1,-2,-3
1461663812828015,6,1,0,1,0,-2,-2,2
1461663812828015,-6,-4,-2,0,0,-2,-2,0
1461663812828015,-2,-7,-7,-4,-4,-1,0,-2
1461663812828015,-1,1,-1,5,0,-2,-2,-4
1461663812843000,1,0,4,4,1,1,-2,2
1461663812843000,-3,-4,-4,-1,-1,0,-1,0
1461663812849020,1,-2,-5,-6,-2,0,0,-1
1461663812849020,0,-1,1,-3,-5,-5,-3,-3
1461663812864030,-1,5,11,5,0,-1,0,0
1461663812864030,-2,-8,-8,-2,0,-1,-1,1
1461663812872080,-4,-2,4,-4,0,-1,-1,-2
1461663812872080,3,-6,-18,-2,-2,-2,-1,-2
1461663812887090,-4,-10,2,3,1,0,0,0
1461663812887090,-6,2,6,-1,-2,0,2,1
1461663812888032,-7,-11,-2,-5,-1,0,-1,-3
1461663812888032,4,-3,2,-3,-2,-3,-2,-1
1461663812903075,2,-3,-4,-3,-1,-2,0,1
1461663812903075,0,3,-2,-1,0,-1,0,1
1461663812909091,-1,3,-2,2,0,1,-1,-1
1461663812909091,1,1,-1,-9,-6,-1,-2,-2
1461663812924129,2,-5,0,-1,-3,-1,0,0
1461663812924129,-3,-3,-12,-1,2,2,-3,0
1461663812932123,-1,1,1,0,0,-8,-1,-1
1461663812932123,2,9,4,-2,0,2,0,-3
1461663812947178,5,-7,-11,-5,-1,1,0,2
1461663812947178,-3,1,4,-3,-2,0,1,-2
1461663812954184,-5,-14,-12,-3,-2,0,-1,-3
1461663812954184,-1,4,-4,8,1,-2,-3,-1
1461663812963130,0,-17,-6,-3,-1,-1,-1,-2
1461663812963130,-4,-6,7,5,1,-1,0,1
1461663812969149,1,3,-2,-5,-2,-1,-1,-2
1461663812969149,1,3,-2,-10,-6,-4,-1,-3
1461663812984142,2,2,8,7,-1,0,-1,3
1461663812984142,-7,-1,-2,-2,-1,-3,-2,0
1461663812992148,-3,3,8,1,1,-1,-1,-1
1461663812992148,-4,-6,-5,-9,-5,0,0,-4
1461663813008177,5,10,-1,-1,-2,0,-1,3
1461663813008177,1,-4,-6,-4,-3,-2,-1,2
1461663813014181,1,2,2,2,1,0,1,1
1461663813014181,-1,-2,1,-4,-3,-3,-2,-4
1461663813023169,-1,-4,-7,-1,1,-1,1,0
1461663813023169,-4,0,2,1,0,-2,-1,0
1461663813029173,-1,5,-7,-8,-3,1,-1,-1
1461663813029173,-3,-7,6,13,3,-1,-2,-4
1461663813044199,-3,-6,-5,3,1,1,-2,1
1461663813044199,-5,-4,-2,-7,-3,-1,-1,-1
1461663813052248,-1,4,9,7,1,-2,-2,-4
1461663813052248,2,-6,-1,-9,-1,1,1,-1
1461663813067215,6,17,0,-3,5,3,1,3
1461663813067215,1,4,6,13,1,0,2,-2
1461663813074355,-13,-29,-18,-8,-8,-2,-1,-3
1461663813074355,4,-2,3,-3,-1,0,-1,-2
1461663813083332,-5,2,10,4,2,2,-1,0
1461663813083332,4,9,-1,7,1,-1,-2,1
1461663813089336,3,4,3,6,1,-1,-3,-3
1461663813089336,-3,-3,-1,-3,-2,-2,-1,-2
1461663813104347,-2,-3,-15,-9,-4,-1,1,1
1461663813104347,-6,3,9,-5,-1,-2,-3,-2
1461663813111338,-7,-9,-9,-1,-3,-1,-4,-5
1461663813111338,2,-1,-8,-4,-4,-2,-5,0
1461663813126348,3,6,4,-1,1,0,2,4
1461663813126348,-4,-5,-3,-3,0,1,3,1
1461663813134379,3,6,5,10,5,1,-1,0
1461663813134379,3,6,4,-10,-7,-6,-2,-3
1461663813143348,1,3,4,7,5,2,0,-1
1461663813143348,-4,-3,-5,-7,-6,-3,-3,-2
1461663813149389,-4,3,-11,-7,0,0,1,-3
1461663813149389,2,-1,18,22,7,3,-1,0
1461663813164376,-1,2,-2,-6,-2,-2,11,2
1461663813164376,-5,-8,-3,-8,-5,-1,-9,-3
1461663813172398,7,12,3,10,7,2,2,3
1461663813172398,1,-11,-24,-4,-4,-5,-10,-3
1461663813186404,2,-6,0,-9,-2,-1,15,6
1461663813186404,4,10,3,0,-2,-2,-15,3
1461663813194389,-4,-3,2,-5,-5,-1,2,-8
1461663813194389,0,-5,-4,1,0,1,-5,-3
1461663813210409,-2,12,6,-2,-4,-1,-2,0
1461663813210409,-2,-9,-6,0,-1,-3,0,-2
1461663813210409,-3,-3,0,0,-1,-3,-3,-4
1461663813210409,-2,4,-1,-11,-5,-1,-1,0
1461663813224419,-4,-10,2,20,4,2,0,0
1461663813224419,1,5,4,8,11,4,12,4
1461663813231466,-1,1,-8,-18,-9,-1,-3,-3
1461663813231466,-8,1,5,18,11,3,5,-5
1461663813255424,6,12,7,-1,-4,-5,-13,4
1461663813255424,-3,2,5,13,7,0,-3,3
1461663813255424,-6,-20,6,2,-4,0,5,-4
1461663813255424,2,8,-14,5,5,1,10,-1
1461663813270453,-1,4,-1,-7,-9,-3,-9,-1
1461663813270453,1,-7,-6,5,5,0,0,4
1461663813270453,-1,0,0,-3,-1,-4,2,-4
1461663813270453,0,0,5,-8,-6,0,2,-8
1461663813284465,0,-2,-5,-5,1,0,-2,4
1461663813284465,1,-5,-1,-9,-8,-6,-24,-1
1461663813291510,-4,-1,-1,-4,-6,-7,-4,-6
1461663813291510,-5,-5,2,8,5,0,-18,-8
1461663813314478,2,0,-3,-14,1,3,9,7
1461663813314478,1,0,-6,-9,-5,5,33,12
1461663813315478,-6,-5,-12,-34,-8,-5,-22,-6
1461663813315478,3,3,14,33,4,-5,-8,-7
1461663813330487,3,-1,1,-14,-7,-3,-7,-1
1461663813330487,-5,-7,11,25,0,-3,-3,-2
1461663813330487,5,1,-16,-12,5,8,8,0
1461663813330487,-5,-2,-19,-12,6,4,16,4
1461663813344517,-2,-2,4,8,0,0,-1,1
1461663813344517,1,-1,-9,-12,-2,-1,4,-4
1461663813351555,15,28,28,15,-4,-3,-11,-2
1461663813351555,-5,-4,-3,-8,4,2,12,-1
1461663813366521,-6,-9,-15,-10,-10,-12,-31,-7
1461663813366521,-1,5,15,4,-2,0,5,-4
1461663813374508,-8,5,-13,6,7,16,22,3
1461663813374508,2,-11,-4,-29,-19,-5,-13,-4
1461663813389548,3,2,-16,-9,-7,-22,-21,6
1461663813389548,-5,-3,-4,-11,-3,-1,16,-1
1461663813390549,-2,2,-6,-9,0,-5,-21,-4
1461663813390549,9,12,7,15,5,10,22,8
1461663813404559,9,1,20,-10,-7,4,10,-12
1461663813404559,-5,-3,-6,6,-7,2,-1,-5
1461663813411550,-17,-16,28,84,44,7,0,2
1461663813411550,9,-1,-3,-2,-1,-19,-39,1
1461663813426545,-5,1,3,-26,-1,-12,-17,-6
1461663813426545,4,9,-12,20,18,6,-18,0
1461663813434611,36,-10,17,-1,-16,12,58,3
1461663813434611,-30,-14,-30,-53,-27,-17,-31,16
1461663813449623,-28,-46,1,52,32,18,37,0
1461663813449623,-10,18,31,-18,-10,10,22,-10
1461663813450563,15,7,-38,-26,-4,-21,-79,-13
1461663813450563,18,12,24,32,-4,-11,-31,1
1461663813464587,4,-9,-4,0,-13,-6,-19,-6
1461663813464587,-5,-10,-20,-43,-22,3,67,8
1461663813471637,-12,6,22,1,9,26,33,13
1461663813471637,27,18,-19,-7,12,-2,8,-1
1461663813486603,-4,11,19,-40,-39,-28,-34,9
1461663813486603,10,9,-51,14,18,-20,-60,-30
1461663813502661,3,8,40,42,12,20,86,10
1461663813502661,17,-19,-40,-34,3,31,-28,2
1461663813510606,-74,-26,-16,8,-31,-35,-28,-28
1461663813510606,-12,-28,25,1,12,14,30,11
1461663813510606,-4,-88,-91,-75,-18,4,6,-8
1461663813510606,4,-26,47,38,20,-6,-18,-4
1461663813524643,22,101,11,68,22,-6,62,23
1461663813524643,-39,35,-7,-21,-10,7,-6,2
1461663813531638,-8,66,-31,-21,-26,-24,-11,-17
1461663813531638,52,48,27,-3,-13,16,34,11
1461663813546630,10,-44,-35,4,22,31,94,26
1461663813546630,1,38,16,6,7,7,-96,-4
1461663813554697,-37,100,31,-38,-38,-55,-85,-28
1461663813554697,15,59,-13,-39,-24,-37,-46,-25
1461663813569664,-18,-39,-58,8,15,12,-37,-13
1461663813569664,-2,-67,55,87,53,25,109,20
1461663813570647,19,-107,6,-42,-7,38,75,20
1461663813570647,11,8,21,-65,-41,3,52,25
1461663813584675,-8,-57,-23,48,45,-17,-87,-22
1461663813584675,21,-34,2,-29,-23,-41,-39,-17
1461663813591676,24,-59,29,119,41,2,-13,19
1461663813591676,-25,-119,-11,-61,-23,1,82,0
1461663813606731,-3,-84,24,56,29,36,2,16
1461663813606731,-25,23,-12,-59,-42,-29,-67,-37
1461663813614690,18,90,18,-10,-3,-10,5,-7
1461663813614690,11,-34,-49,-26,14,25,84,27
1461663813629701,-47,95,34,21,3,25,15,13
1461663813629701,85,106,-2,19,9,-30,-65,-16
1461663813630701,-55,53,-3,-116,-62,-1,78,13
1461663813630701,-29,-5,-57,125,71,12,-118,-44
1461663813645701,43,18,-1,-43,-26,-40,27,31
1461663813645701,-11,-35,5,18,3,-1,10,30
1461663813651705,21,-40,-22,-20,-20,-36,-87,-45
1461663813651705,-23,-51,22,-33,-43,-25,-27,-20
1461663813666716,1,-16,-27,-117,-4,30,8,-11
1461663813666716,-8,-5,21,51,47,41,96,32
1461663813674721,27,-34,17,-13,9,-5,28,18
1461663813674721,-39,-15,6,107,53,42,66,21
1461663813689790,56,19,19,-37,-24,6,-62,-35
1461663813689790,-94,-3,-12,-83,-28,-13,-59,-17
1461663813690732,32,-10,-12,-15,12,-25,-83,-26
1461663813690732,-54,2,71,20,-31,-51,-36,-15
1461663813705743,11,22,-21,-5,13,22,127,37
1461663813705743,-7,-3,-27,-55,-26,16,2,20
1461663813720817,-9,-32,-10,32,5,15,-22,-10
1461663813720817,74,-4,-23,-86,-24,22,-31,-13
1461663813727760,14,16,-9,3,-24,-83,-81,-17
1461663813727760,-28,2,20,30,11,-14,-9,-5
1461663813734762,-3,-22,-20,-41,8,16,102,33
1461663813734762,1,-7,-12,-2,2,35,6,-5
1461663813749847,-61,6,47,58,2,-12,-98,-38
1461663813749847,14,3,-85,-76,-48,-13,10,14
1461663813750780,8,-11,28,59,6,-6,-33,0
1461663813750780,54,-14,50,14,40,13,26,20
1461663813765810,57,7,21,3,11,10,44,19
1461663813765810,4,30,-35,-61,-24,-27,-7,-11
1461663813771815,-32,-24,-42,6,-3,8,15,8
1461663813771815,-46,-23,10,53,29,7,10,32
1461663813786825,-34,24,44,-13,-10,12,16,-59
1461663813786825,-80,7,-22,83,33,18,-38,-53
1461663813794831,23,-18,-16,-58,-30,-25,-6,11
1461663813794831,65,-15,-13,-30,-12,8,-30,42
1461663813809828,-73,8,22,-5,-28,-60,-73,-35
1461663813809828,-34,13,36,43,27,34,71,-4
1461663813810817,41,-4,-43,-77,-32,-44,-43,43
1461663813810817,21,-15,1,40,14,-14,16,56
1461663813825829,-6,-2,-20,-46,-8,49,37,-21
1461663813825829,95,2,29,-128,-74,-10,25,-26
1461663813831845,-107,-10,36,127,83,35,-16,-45
1461663813831845,27,-17,-19,14,39,18,17,50
1461663813846881,-98,17,-61,-88,-84,-36,-16,-34
1461663813846881,72,1,19,121,99,22,21,-3
1461663813853887,0,-10,-9,-101,24,23,-3,53
1461663813853887,16,-11,-27,-84,-46,-31,-17,0
1461663813869859,-57,1,-4,92,36,31,110,1
1461663813869859,21,5,6,24,-4,8,-3,-53
1461663813870866,85,-20,2,-1,-13,1,-37,66
1461663813870866,-1,-5,-17,-33,-31,-53,-50,-23
1461663813885894,33,11,24,-27,11,-10,-11,9
1461663813885894,-68,4,2,-102,-56,9,77,-7
1461663813891890,-6,-22,17,101,39,29,-79,-52
1461663813891890,-60,5,-42,-55,-52,-45,-20,29
1461663813906946,111,-8,5,49,38,16,-17,-10
1461663813906946,84,18,69,37,6,-10,8,-26
1461663813913904,-124,-5,-21,-54,3,22,54,8
1461663813913904,81,-23,-12,-1,-11,0,-5,-4
1461663813929900,-34,20,16,73,66,29,46,1
1461663813929900,-59,1,-32,-73,-3,11,14,2
1461663813930901,110,-14,10,-33,-21,-9,54,43
1461663813930901,-45,-3,-13,42,58,12,-44,-17
1461663813945915,22,2,-15,-96,-35,-21,-45,-25
1461663813945915,-67,12,21,115,43,35,72,53
1461663813951924,52,-9,7,-4,-37,-24,-53,-21
1461663813951924,-85,-15,2,-27,-38,-53,-35,-13
1461663813966957,85,13,-16,-12,-13,20,45,18
1461663813966957,-71,14,-23,-38,-33,-27,-77,-51
1461663813974934,115,-16,12,15,20,18,83,50
1461663813974934,-84,6,-10,-3,-5,37,20,-4
1461663813988943,68,-13,-25,-118,-44,-46,-79,-28
1461663813988943,-48,15,0,62,67,22,2,17
1461663813996947,-21,-14,52,103,24,6,28,17
1461663813996947,118,-2,6,-58,2,12,35,0
1461663814005955,-46,1,23,-30,-26,6,2,-23
1461663814005955,51,-1,4,36,77,17,46,46
1461663814011958,8,-19,-5,-29,-4,-4,-76,-10
1461663814011958,0,-17,7,22,-21,-14,17,50
1461663814026969,-37,9,-23,-14,-26,17,67,1
1461663814026969,46,4,-22,-45,-51,-13,-70,-47
1461663814033976,-128,6,-20,17,-17,-46,-77,-83
1461663814033976,47,-1,3,-101,-69,-40,-40,32
1461663814048986,1,8,11,113,75,10,-18,-29
1461663814048986,11,-5,25,-52,-23,-3,68,19
1461663814056991,23,2,0,-54,5,33,44,42
1461663814056991,-40,20,-15,-60,-26,-7,-5,-51
1461663814065997,-10,-1,11,108,74,28,30,-3
1461663814065997,-34,-1,-26,-92,-90,-24,-54,-43
1461663814072064,58,-9,37,46,67,20,16,60
1461663814072064,-69,-8,21,7,32,7,12,1
1461663814088042,16,4,6,8,15,22,26,-25
1461663814088042,14,-1,-19,-82,-31,-3,13,-41
1461663814094027,55,-8,8,44,-19,-24,-86,39
1461663814094027,44,-2,-25,31,-15,-3,35,11
1461663814109031,-66,-5,6,-3,2,32,60,89
1461663814109031,30,20,-31,18,-8,-42,-73,-74
1461663814117049,-54,-14,-20,-89,-81,-39,-40,-51
1461663814117049,44,6,17,71,53,24,6,-14
1461663814126040,-79,7,-18,-74,-17,-5,9,0
1461663814126040,7,-10,85,73,55,47,73,32
1461663814132082,40,-8,-32,9,0,-37,-37,-3
1461663814132082,-43,8,-41,-85,-38,-22,-45,12
1461663814147093,-15,-5,26,-11,-57,-12,-38,-25
1461663814147093,-40,3,66,70,72,27,2,30
1461663814154098,18,-14,11,-38,-13,22,66,23
1461663814154098,115,-6,54,27,9,12,51,21
1461663814169109,124,12,-42,-86,-31,-20,-16,-34
1461663814169109,-96,-4,-53,-45,-14,-6,-48,-50
1461663814177088,13,-13,-41,-6,-11,11,22,17
1461663814177088,7,10,23,59,17,8,4,24
1461663814192090,-40,2,-5,28,6,0,26,25
1461663814192090,50,-9,-20,18,-14,-25,-84,-37
1461663814193087,43,7,33,-32,-7,-13,-6,3
1461663814193087,33,2,-5,35,23,-3,13,24
1461663814207155,-29,-9,-28,-17,-11,-30,-27,-8
1461663814207155,127,-12,-17,-26,-26,-18,-29,9
1461663814214113,-82,1,-2,49,21,19,32,16
1461663814214113,-41,0,-19,90,34,31,15,-51
1461663814231126,6,7,6,-69,27,15,0,11
1461663814231126,-3,-7,21,24,6,-2,9,22
1461663814245183,-15,-6,10,-7,18,12,15,24
1461663814245183,-39,9,49,-84,-23,0,8,-26
1461663814252128,-25,-3,-66,-50,3,-4,-33,-60
1461663814252128,18,-14,24,41,12,-11,19,37
1461663814253129,-6,22,13,-41,-4,18,44,-1
1461663814253129,-128,1,-10,-2,0,14,-12,-17
1461663814267140,109,-10,35,-24,-34,-44,-50,14
1461663814267140,89,-8,-32,-45,-33,-12,-22,38
1461663814274164,-30,-4,-43,8,-42,-40,-34,-31
1461663814274164,127,16,24,-12,11,4,34,11
1461663814289213,-34,-4,-10,-18,3,40,22,27
1461663814289213,-41,-8,-34,-38,-12,-27,-48,-52
1461663814297219,45,-5,44,35,40,11,-1,4
1461663814297219,24,5,-32,-75,-38,-23,-30,-21
1461663814312183,77,-2,-34,89,40,19,27,17
1461663814312183,-20,6,49,93,79,39,57,39
1461663814313171,-72,-9,-23,-97,-63,-3,-2,-16
1461663814313171,20,1,-25,47,39,-10,-20,-30
1461663814327194,-6,-9,50,12,-3,-3,17,16
1461663814327194,-42,4,-5,-121,-48,2,27,8
1461663814334199,10,-13,-54,70,40,22,-26,-27
1461663814334199,1,3,6,-5,-18,-16,-48,13
1461663814349256,-75,7,-4,-8,-17,-34,-58,-18
1461663814349256,60,-4,-26,-2,0,-6,-33,4
1461663814357320,-27,-1,-5,-52,-35,-46,-6,-10
1461663814357320,-13,16,1,-6,-15,27,22,-11
1461663814372305,106,-2,25,23,39,31,15,-5
1461663814372305,-73,6,-17,-69,-53,-34,2,-6
1461663814373292,-60,-7,-28,-34,-19,5,22,18
1461663814373292,52,-2,74,-29,-13,1,-15,-24
1461663814395282,30,4,42,-55,14,14,2,4
1461663814395282,14,-2,-35,105,50,10,6,8
1461663814396284,55,-5,40,-13,-1,6,19,9
1461663814396284,-128,20,-20,-44,-27,-11,8,-18
1461663814409291,34,-15,3,27,-32,-1,-1,6
1461663814409291,8,0,13,22,2,-3,1,25
1461663814417297,-1,-5,-17,4,-2,-9,-27,-19
1461663814417297,52,13,-7,-3,14,31,53,2
1461663814432308,-90,0,-20,-29,-24,-17,-32,-40
1461663814432308,33,-7,-9,15,-5,-17,-26,19
1461663814433308,23,-1,4,2,-16,-35,-44,8
1461663814433308,88,6,-5,-13,-4,-10,35,14
1461663814447317,-71,7,28,19,21,31,59,1
1461663814447317,-109,-10,-38,-59,-21,4,-30,-44
1461663814454325,90,-7,21,-11,-18,-5,-8,3
1461663814454325,50,4,17,7,42,10,12,13
1461663814469388,-38,5,43,89,32,-2,-1,3
1461663814469388,29,0,-15,-44,5,14,20,18
1461663814477394,-59,2,-4,20,-29,-2,13,-11
1461663814477394,-16,1,-14,44,22,-2,-6,-5
1461663814492386,6,0,-2,-35,-45,-20,-28,-16
1461663814492386,57,-3,9,-11,-18,-9,-3,8
1461663814493405,-21,-5,-7,-11,20,6,26,12
1461663814493405,23,7,6,4,1,13,-3,10
1461663814506455,-52,-13,-41,-17,-14,-39,-12,-37
1461663814506455,42,-7,-11,-12,-29,-12,-14,0
1461663814514414,5,6,-5,-2,15,49,-13,1
1461663814514414,39,3,7,26,7,-34,-25,-7
1461663814531415,7,5,-15,-26,-3,54,14,-1
1461663814531415,-17,-3,6,-3,-16,-34,5,13
1461663814537425,-34,-10,6,1,0,-3,30,4
1461663814537425,-12,-5,-2,-62,-32,-6,-6,-17
1461663814552430,-9,2,4,74,52,-2,-16,2
1461663814552430,-6,-3,13,-9,4,11,11,6
1461663814553431,18,-1,4,49,44,9,1,2
1461663814553431,-37,0,-11,-14,-14,-11,-13,-18
1461663814566439,23,1,0,-28,-26,-16,-16,-3
1461663814566439,-5,-36,11,2,-4,5,6,5
1461663814574508,5,-24,-13,-15,-11,-8,6,-3
1461663814574508,-14,-105,-8,10,4,0,-37,-14
1461663814590485,25,-128,-8,-13,-4,-19,27,24
1461663814590485,-23,-88,9,32,17,18,43,19
1461663814596491,-10,127,-9,-18,-5,-25,-59,-29
1461663814596491,-1,127,-16,5,-6,85,-17,-20
1461663814612487,46,127,18,2,-1,-5,-7,28
1461663814612487,-27,86,-3,6,1,-19,-10,-5
1461663814613475,-15,127,-4,8,-10,-13,41,3
1461663814613475,-12,127,-10,-35,-19,1,11,-1
1461663814626481,6,73,-43,-97,-24,-2,-25,-9
1461663814626481,0,62,16,76,47,13,2,3
1461663814634486,21,12,19,36,40,-3,5,1
1461663814634486,-22,-85,-27,17,22,-20,-3,6
1461663814649496,22,-106,34,35,-4,0,-10,34
1461663814649496,6,-128,-8,-26,-21,-14,-8,-3
1461663814656514,-48,-78,24,-22,-28,-6,-11,-85
1461663814656514,-22,-93,-7,-3,-13,-35,-13,-4
1461663814672526,22,-59,-20,2,-3,-6,6,53
1461663814672526,9,10,-1,-10,-3,9,-6,10
1461663814673527,-13,98,-2,13,6,42,16,-52
1461663814673527,-29,3,-1,-4,-5,-20,25,3
1461663814686536,35,52,-8,-9,-3,47,8,38
1461663814686536,33,102,6,9,3,-11,9,30
1461663814694541,-34,86,-21,-29,-14,-20,-19,-52
1461663814694541,-18,98,0,10,-1,8,13,-2
1461663814709554,2,34,4,7,10,-24,-8,36
1461663814709554,12,-32,-6,-7,5,10,-11,-3
1461663814716557,-2,7,2,4,9,-8,5,-36
1461663814716557,-15,23,1,12,-1,-10,-1,-9
1461663814732568,23,-6,-11,1,2,-1,-4,32
1461663814732568,8,-19,-10,-21,-9,5,-3,3
1461663814733557,-9,11,17,-5,-1,-10,8,-26
1461663814733557,-5,18,69,17,0,6,-12,-16
1461663814746605,8,-19,-33,-9,-8,-13,4,26
1461663814746605,7,7,-16,-3,8,14,-12,-14
1461663814754629,-10,-21,-39,-18,-7,15,2,-31
1461663814754629,-7,-2,-2,13,3,-9,-1,8
1461663814777600,8,6,14,-1,-2,2,5,28
1461663814777600,0,6,26,1,-2,6,-3,-2
1461663814778601,-2,-13,-3,3,6,-2,-7,-24
1461663814778601,-6,-3,-5,-7,0,2,11,6
1461663814792636,1,-9,-3,3,-2,18,-7,15
1461663814792636,4,-15,-8,0,-4,-24,-5,6
1461663814793641,-2,-19,7,-14,-6,8,0,-20
1461663814793641,-2,1,5,7,8,-5,7,6
1461663814806700,2,-8,1,12,3,-9,-4,12
1461663814806700,0,-14,14,-6,-4,5,-3,-6
1461663814814659,-2,-14,-21,-10,-3,-4,4,-13
1461663814814659,-7,-7,-15,-4,0,-6,0,4
1461663814829736,5,8,18,11,3,1,-2,8
1461663814829736,-1,-21,-7,-4,-4,0,12,4
1461663814836758,-1,-1,7,-4,-5,-10,-20,-25
1461663814836758,-3,-10,-39,0,0,1,1,7
1461663814852748,5,17,48,-8,-2,-8,-5,3
1461663814852748,0,-16,-15,-5,-4,-8,-4,-7
1461663814853747,-2,6,31,14,7,20,10,0
1461663814853747,8,-6,-22,-5,-3,0,1,5
1461663814866771,-6,-18,-34,-7,-4,4,12,10
1461663814866771,-2,-2,-7,1,1,-11,-1,-2
1461663814874822,6,9,7,1,0,4,1,-5
1461663814874822,4,1,-1,-1,0,0,-1,7
1461663814889822,-5,-9,2,-3,-6,-14,-13,-5
1461663814889822,-1,-1,-21,-9,-7,0,0,2
1461663814896835,-4,-10,-9,-4,-3,-3,-3,-8
1461663814896835,-1,10,17,5,1,-1,4,3
1461663814911799,5,9,9,5,3,-4,3,8
1461663814911799,-8,-5,1,1,-3,1,-6,-10
1461663814919850,1,-3,3,-5,-3,-8,3,0
1461663814919850,-5,5,19,-1,-1,1,0,-1
1461663814926799,-2,-14,-5,4,-1,-2,-3,0
1461663814926799,3,0,-8,6,8,5,0,-2
1461663814934860,-3,17,37,5,-3,-6,-2,-4
1461663814934860,-1,2,3,-2,1,4,2,3
1461663814949824,6,14,0,1,-2,-12,-1,0
1461663814949824,-3,-7,8,-1,-2,12,-4,-1
1461663814956881,-12,-27,-54,-7,-3,-14,-4,-2
1461663814956881,-3,-15,-18,2,0,10,2,-1
1461663814980865,7,11,7,3,-1,4,1,1
1461663814980865,2,-1,4,-4,-4,-10,-6,-3
1461663814981838,-6,-17,16,5,1,-2,0,-4
1461663814981838,0,-14,-24,-3,-1,14,6,1
1461663814986869,-6,-14,20,-4,-3,2,0,-1
1461663814986869,1,2,-12,2,-1,-2,-1,-2
1461663814994853,3,-4,-10,0,-2,-14,-4,1
1461663814994853,-2,7,8,-3,0,2,9,7
1461663815009857,2,-4,4,5,-1,2,-20,-16
1461663815009857,-5,0,3,-6,-9,-2,-1,-2
1461663815016877,5,16,9,-16,-5,-3,-3,1
1461663815016877,-3,-7,-13,21,18,2,2,3
1461663815031872,-2,0,-6,-27,-6,-3,3,0
1461663815031872,-6,-10,4,30,12,3,0,-4
1461663815039916,5,-5,-11,6,4,1,-1,-1
1461663815039916,-1,-2,12,-4,-7,-10,-7,-2
1461663815046922,-4,-12,-30,-14,-8,2,3,-1
1461663815046922,1,4,13,-7,-7,-3,-1,-2
1461663815062905,-5,-4,-11,-5,-2,2,2,3
1461663815062905,5,1,8,-2,-5,-12,-9,-1
1461663815068937,-4,9,14,6,4,16,6,2
1461663815068937,0,-1,-7,-12,-5,1,10,-1
1461663815076917,-4,-7,-6,5,1,17,2,-1
1461663815076917,-1,10,6,-3,-1,-10,-15,-4
1461663815091973,3,6,-4,5,2,-10,-2,0
1461663815091973,0,-4,11,-1,-2,-1,-4,-3
1461663815099978,-2,-7,16,2,-1,-5,-3,-1
1461663815099978,-4,-6,-26,1,-2,-4,1,0
1461663815114943,-4,-4,2,-2,-2,-1,3,0
1461663815114943,-1,2,3,-7,-4,-2,-2,-4
1461663815115932,1,0,0,5,3,-4,0,2
1461663815115932,-1,-4,0,4,-1,2,-1,-1
1461663815128952,-5,-14,-33,-17,-5,-3,1,-1
1461663815128952,-1,3,26,3,0,0,1,-4
1461663815137005,7,8,-3,0,-1,2,-3,2
1461663815137005,-6,-5,17,-1,-4,1,0,-3
1461663815151957,-2,-10,-15,-1,-2,-4,-2,-3
1461663815151957,2,-4,-13,-4,-4,-6,-3,-5
1461663815159975,-4,-2,-10,-5,-1,1,-2,0
1461663815159975,3,7,8,-1,-2,-7,-1,2
1461663815175974,3,11,7,7,1,-14,1,1
1461663815175974,-3,2,-6,-9,0,16,-2,-5
1461663815175974,4,3,3,5,1,-10,-2,3
1461663815175974,-2,-3,-5,-4,0,0,1,4
1461663815190999,-5,-7,4,8,5,19,3,1
1461663815190999,0,1,-9,-4,-2,-14,-5,-5
1461663815197001,-1,-7,-7,-6,-4,10,0,0
1461663815197001,-2,7,26,0,0,-4,1,1
1461663815213008,2,3,3,4,-2,-6,-3,-2
1461663815213008,-3,-6,-12,-2,1,-2,-3,-2
1461663815220006,1,-3,-8,-8,-5,-4,0,2
1461663815220006,-3,-10,-17,-8,-4,0,0,1
1461663815235075,-2,1,14,26,12,3,-1,-3
1461663815235075,2,10,6,9,1,-1,-1,-1
1461663815236019,-7,-10,-10,-11,-6,-4,-3,-3
1461663815236019,6,6,10,-4,-2,1,0,1
1461663815249084,0,-8,-15,-8,-3,-1,-1,-1
1461663815249084,1,-9,-11,-4,-4,-3,-1,-3
1461663815257091,-2,6,13,-1,-2,-7,-5,-4
1461663815257091,-2,-2,-11,-5,-5,-1,0,1
1461663815272104,3,9,9,0,0,12,3,0
1461663815272104,-6,-2,3,-3,-1,-7,-4,-4
1461663815280062,3,-9,-16,1,2,8,6,3
1461663815280062,0,7,13,1,0,-1,-2,2
1461663815295114,0,-3,-7,1,1,-9,-3,-1
1461663815295114,-6,-1,-1,-1,0,2,1,-2
1461663815296061,-2,-3,1,-5,-4,-2,-3,0
1461663815296061,1,5,1,3,1,-1,0,1
1461663815309068,4,24,38,4,1,-6,-2,0
1461663815309068,-21,-63,-86,-19,-9,2,-1,-10
1461663815317074,0,-3,5,10,8,2,1,3
1461663815317074,-2,-10,-8,2,3,3,0,0
1461663815332235,-2,2,-4,-18,-7,-2,-1,-3
1461663815332235,3,19,30,8,-1,-5,-2,-2
1461663815340246,-1,0,3,4,2,-3,-2,0
1461663815340246,2,-4,-9,-2,-1,2,-1,1
1461663815355194,-1,-3,-5,4,0,-2,0,0
1461663815355194,-1,8,9,-10,-9,-4,-7,-6
1461663815362199,-3,-7,-14,-3,-4,-3,-2,-2
1461663815362199,3,7,8,2,-1,-3,-2,1
1461663815369261,-3,-10,-13,-7,-5,-2,-3,-3
1461663815369261,2,7,17,1,1,2,0,-1
1461663815377220,1,1,-2,-2,-2,0,-1,2
1461663815377220,0,2,6,-2,-2,-3,-2,1
1461663815392235,-4,-10,-24,4,2,-2,-1,-1
1461663815392235,0,9,16,8,7,3,2,-1
1461663815400284,0,0,-1,-18,-10,-2,-1,0
1461663815400284,0,1,4,18,6,2,1,2
1461663815415235,-1,-1,6,-3,0,0,0,-3
1461663815415235,-3,-2,12,9,2,0,0,-4
1461663815416236,3,-1,-8,-12,-7,-4,-1,2
1461663815416236,-2,-2,-5,-8,-6,-2,-1,-1
1461663815429253,-3,0,1,-2,-3,-2,0,-1
1461663815429253,1,-1,-4,-3,-1,-2,-4,-2
1461663815437259,7,-3,-2,-1,-1,-4,-1,4
1461663815437259,-3,-5,-10,-5,-2,0,0,-2
1461663815453279,1,0,5,3,0,-1,-2,-2
1461663815453279,-2,3,-1,-6,-2,1,0,-2
1461663815460284,-1,-5,-1,4,2,1,-1,1
1461663815460284,-2,-6,-9,0,-1,-1,1,-1
1461663815475280,1,6,5,-7,-3,-3,-1,1
1461663815475280,-4,-14,-26,-18,-5,0,1,-1
1461663815476281,-1,5,9,33,9,-1,-1,1
1461663815476281,-1,-2,4,0,5,0,0,1
1461663815489303,-1,-1,-10,-20,-7,-4,-1,-3
1461663815489303,-1,1,20,18,2,-1,1,-2
1461663815497296,1,3,-1,-3,-3,-1,-1,-2
1461663815497296,-3,-5,3,-4,-2,-1,-1,0
1461663815512306,-6,-8,-8,1,0,-2,-3,-4
1461663815512306,-3,5,3,-7,-4,-4,-1,-4
1461663815520326,0,2,4,0,0,2,0,2
1461663815520326,-3,-4,-3,0,-1,-1,-2,0
1461663815535416,-5,0,-7,4,4,-1,0,-4
1461663815535416,-2,-1,-13,-3,0,-1,-1,-2
1461663815535416,-2,-8,2,-1,0,-1,0,0
1461663815535416,1,3,-1,-4,-3,-2,-2,1
1461663815549453,-6,-1,8,1,1,-1,-1,-5
1461663815549453,-3,-3,-4,0,0,-1,-1,-3
1461663815556458,0,2,-3,-1,-2,-3,-1,2
1461663815556458,1,-2,-9,-17,-7,-1,-1,2
1461663815572445,0,-2,2,17,6,1,0,-1
1461663815572445,0,1,-3,-3,-2,-3,-3,-3
1461663815580417,-1,1,12,-2,-2,-1,-3,0
1461663815580417,2,3,2,4,7,3,1,2
1461663815595428,-1,-16,-19,-6,-1,-1,2,-1
1461663815595428,0,13,23,-3,-2,1,0,-4
1461663815595428,-4,-7,-16,4,-1,1,0,0
1461663815595428,-1,3,1,-5,-3,-1,-1,0
1461663815609436,2,3,12,10,0,-2,-1,-1
1461663815609436,1,-6,-8,-5,0,-1,-2,-3
1461663815616457,-2,3,-1,-10,-6,-3,-2,0
1461663815616457,-2,-4,-2,3,-1,0,-1,0
1461663815631451,3,-5,-10,-8,-6,-1,-2,-3
1461663815631451,-1,-3,-2,-1,-2,-4,-3,-6
1461663815640457,4,-4,-7,-2,-1,-1,-1,3
1461663815640457,-1,3,3,-1,-3,-1,-2,0
1461663815655468,0,-2,1,1,3,0,2,2
1461663815655468,-3,-1,-2,0,-3,-1,-1,-1
1461663815655468,0,0,-2,-8,-2,-3,-2,-2
1461663815655468,1,4,-2,2,0,-3,-2,1
1461663815669491,-3,-5,-8,5,-2,-2,-3,-3
1461663815669491,-1,-3,-6,-14,-7,-2,-1,-3
1461663815676484,-1,2,14,28,19,5,4,2
1461663815676484,0,-4,4,-1,1,0,-1,3
1461663815691506,-1,7,-3,-8,-4,0,0,-3
1461663815691506,0,-3,-3,-3,-5,-1,0,-3
1461663815700514,-3,-3,-7,-7,-5,-2,-2,0
1461663815700514,1,7,9,4,3,1,1,1
1461663815715524,1,7,10,8,1,-1,-1,-1
1461663815715524,-3,-8,-6,1,-1,-2,-3,-5
1461663815715524,1,3,-1,-11,-7,-4,-2,-1
1461663815715524,-2,-5,-5,1,0,-1,0,0
1461663815729534,-5,-2,-2,-10,-4,-2,-2,-2
1461663815729534,1,0,1,1,-1,-1,-2,-3
1461663815736565,2,-5,-6,-2,-3,-2,0,3
1461663815736565,3,0,-3,-2,-3,0,0,-1
1461663815751537,-2,-3,1,1,1,0,-1,-2
1461663815751537,0,2,-1,-3,-2,-1,0,-1
1461663815759564,-5,-6,-2,-15,-8,-3,-5,-1
1461663815759564,0,-1,-8,5,2,-1,1,0
1461663815775576,0,1,-1,1,4,0,1,-2
1461663815775576,-6,-11,-15,6,2,0,-1,-3
1461663815775576,1,4,14,-14,-10,-3,-2,0
1461663815775576,-1,-3,-4,-11,-5,0,-1,0
1461663815789578,-2,5,12,13,-2,-2,-1,-3
1461663815789578,-3,1,-3,5,8,0,-1,-2
1461663815796627,3,-7,-11,-12,0,0,-1,2
1461663815796627,-5,-2,3,14,3,-2,-2,-2
1461663815811593,-2,0,4,1,1,0,0,-2
1461663815811593,1,1,1,-1,-3,-1,-1,-3
1461663815819599,2,3,5,5,3,-1,-1,2
1461663815819599,0,-1,-8,-4,0,0,1,1
1461663815835618,-3,-4,-6,-8,-4,-1,-3,-3
1461663815835618,-1,3,6,0,-2,-2,-2,-1
1461663815835618,1,-2,-6,1,-1,0,0,2
1461663815835618,-1,-2,-1,-6,-7,-1,-1,2
1461663815849665,2,1,1,2,-1,-2,-2,0
1461663815849665,-2,1,2,-12,-4,-2,0,-6
1461663815856671,4,6,-1,29,13,2,-1,3
1461663815856671,-8,-15,11,-7,-3,-1,-1,-3
1461663815871683,-2,0,1,5,3,3,1,-3
1461663815871683,-4,-5,1,-6,-2,-1,-2,-2
1461663815879635,-2,-4,-14,-27,-14,-3,-4,0
1461663815879635,5,9,18,37,16,3,1,0
1461663815894667,3,-1,-1,-4,3,1,2,-2
1461663815894667,-3,-12,-3,3,1,-2,-1,-1
1461663815902660,2,9,12,-2,-2,0,0,-1
1461663815902660,-2,-4,-11,-15,-9,-3,-3,0
1461663815909650,-2,0,-2,-3,-5,-1,-1,-1
1461663815909650,1,3,-4,6,3,0,-1,-1
1461663815916669,-2,-5,-6,1,-2,-5,-1,2
1461663815916669,1,3,-3,-8,-3,-1,-1,0
1461663815931722,1,-1,4,0,0,-1,-2,1
1461663815931722,-3,2,1,-2,-3,-2,-2,-4
1461663815939728,1,-2,0,3,2,1,-1,2
1461663815939728,0,-3,-8,-4,-4,-2,-1,-2
1461663815954740,1,1,3,-4,0,-1,0,-2
1461663815954740,-2,1,1,-11,-7,0,-1,-3
1461663815962716,-1,-1,4,29,16,2,-1,2
1461663815962716,3,0,4,2,2,0,1,1
1461663815969720,-5,1,-3,-9,-4,-2,-2,-5
1461663815969720,-2,-1,5,-13,-7,-3,-1,-1
1461663815976726,-1,-10,0,18,4,1,2,0
1461663815976726,6,3,-6,-3,0,-2,0,0
1461663815991724,-2,2,5,6,2,-1,-2,-4
1461663815991724,-3,4,-1,-3,-3,2,0,-1
1461663815999729,5,2,-8,-18,-5,-2,-1,2
1461663815999729,-10,-14,-2,8,0,-2,-3,-1
1461663816014739,-1,1,-5,-6,-5,0,-1,-1
1461663816014739,0,0,-5,7,0,-3,-1,-3
1461663816022729,5,-1,-2,-6,-3,-3,-2,3
1461663816022729,-3,0,-3,-9,-3,-1,-2,0
1461663816029734,-2,-4,-3,0,2,-2,1,-2
1461663816029734,-6,2,-1,6,0,-2,-4,-3
1461663816036777,-1,-8,-7,-13,-6,-2,-1,0
1461663816036777,-2,3,1,4,2,0,0,-2
1461663816059784,-5,-5,-3,-10,-2,0,-2,-6
1461663816059784,-1,-4,2,20,5,-1,-2,-1
1461663816060757,1,1,1,-6,-1,0,0,2
1461663816060757,2,3,2,-7,0,-1,-2,2
1461663816074796,-3,-8,-6,9,3,0,0,-2
1461663816074796,1,2,0,-12,-6,-4,0,-2
1461663816082789,-2,2,8,15,2,1,0,0
1461663816082789,-1,0,-8,-7,1,2,-1,2
1461663816097800,-3,4,7,1,3,-1,-2,-2
1461663816097800,-1,-7,-10,1,-1,-2,-1,-2
1461663816098801,0,-3,-7,-12,-8,-2,-2,1
1461663816098801,1,1,-8,-12,-6,-3,0,-2
1461663816111805,-3,1,5,0,-1,0,-3,-4
1461663816111805,1,1,0,0,3,-1,-1,0
1461663816119809,-2,-2,-3,-5,-1,-3,0,4
1461663816119809,0,-2,0,-1,-3,0,0,1
1461663816134846,1,2,-3,-2,-4,-4,-1,-3
1461663816134846,-2,-3,-9,-3,-2,2,-1,-4
1461663816142812,-4,-12,0,-2,-1,1,-1,0
1461663816142812,4,3,-2,-1,-4,-1,-4,-2
1461663816157863,1,-7,-6,-6,0,-1,1,-1
1461663816157863,-1,8,4,3,1,-3,-3,-5
1461663816158824,4,6,1,-8,2,-1,-1,2
1461663816158824,-2,-6,0,6,2,3,0,-2
1461663816171897,0,4,-3,-10,-5,-1,0,-2
1461663816171897,-10,-20,-14,-5,-6,-2,-3,-4
1461663816179870,2,9,7,6,2,-2,-1,2
1461663816179870,-2,-2,2,-3,-2,-3,0,0
1461663816194880,1,1,4,4,2,-2,0,-2
1461663816194880,1,-2,-9,-7,-5,-2,-2,-3
1461663816202872,-3,-6,-11,-12,-7,-2,-3,1
1461663816202872,1,6,5,5,5,1,0,1
1461663816217882,-2,-2,-8,-5,-2,-1,-1,-2
1461663816217882,-4,-1,8,4,0,-1,0,-3
1461663816218867,2,1,-1,-3,-2,-1,-1,2
1461663816218867,-3,2,2,-4,-4,1,-1,-2
1461663816231916,-3,-5,-3,6,1,0,-1,-1
1461663816231916,0,2,2,-3,-1,-2,-1,-1
1461663816238920,-2,-7,-7,1,1,1,-1,0
1461663816238920,-2,1,3,2,0,1,0,-1
1461663816253904,-5,0,3,-3,-2,-3,-1,-5
1461663816253904,-2,-4,-6,-15,-6,-2,0,-2
1461663816262928,0,5,14,24,5,-1,0,0
1461663816262928,-3,-13,-14,-1,-1,-2,0,1
1461663816276909,-3,-6,-14,-4,-3,1,-1,-3
1461663816276909,0,1,7,-4,-6,-3,-3,-2
1461663816284943,8,8,-9,-1,2,-2,1,2
1461663816284943,-6,-10,6,1,0,-3,-1,-1
1461663816291935,0,4,6,12,5,2,1,-1
1461663816291935,-2,-1,5,3,0,-1,-2,-2
1461663816298939,-3,-5,-3,-10,-5,-2,0,0
1461663816298939,1,5,1,4,0,-1,0,0
1461663816313949,-3,-5,-9,-14,-5,0,0,-1
1461663816313949,-2,0,-4,5,3,-1,-1,0
1461663816322953,3,2,5,-2,-1,0,-1,3
1461663816322953,-3,8,1,-8,-4,-2,-3,-3
1461663816338016,-6,-5,10,12,-2,-3,-2,-4
1461663816338016,2,2,-4,-3,1,0,0,0
1461663816338016,3,-6,-6,-3,-2,1,0,3
1461663816338016,-6,-8,-4,-5,-5,0,0,0
1461663816352020,-1,-3,-4,9,3,-1,-1,-1
1461663816352020,-1,3,11,-7,-2,-1,-2,-1
1461663816359008,4,7,0,1,-1,-1,1,1
1461663816359008,1,0,6,9,2,-1,-2,-2
1461663816374036,-2,5,10,4,-1,-1,2,-3
1461663816374036,-3,-11,-14,-10,-2,1,0,1
1461663816383012,2,-2,-2,-4,0,0,-2,3
1461663816383012,-3,-1,-7,-3,-3,-2,-1,0
1461663816398023,-1,2,3,6,4,1,0,-2
1461663816398023,1,0,-3,0,-4,-4,-2,-1
1461663816398023,-2,-3,-2,-3,-3,0,-1,2
1461663816398023,0,2,2,-2,-1,0,-1,0
1461663816412020,-2,-3,-8,-13,-6,-1,-2,-3
1461663816412020,-4,-1,5,9,3,-1,-1,-2
1461663816419025,-4,-6,-1,-6,-3,-3,-2,0
1461663816419025,2,7,-5,5,3,-2,-1,1
1461663816435021,-7,-13,-2,-7,0,2,-2,-3
1461663816435021,2,5,-2,-6,-6,-2,-1,-1
1461663816443040,-1,-2,8,7,4,0,1,1
1461663816443040,4,10,5,-3,-1,-2,-1,-1
1461663816458083,-4,3,16,-3,-3,-2,-1,-3
1461663816458083,-5,-9,-11,-3,-4,-2,0,-1
1461663816458083,1,-3,-8,-15,-3,-1,1,2
1461663816458083,-1,-5,-1,18,6,-2,-2,-3
1461663816472077,-1,1,-5,0,0,2,-1,-1
1461663816472077,0,1,12,10,7,1,-2,-1
1461663816479057,1,3,2,4,0,1,0,1
1461663816479057,4,-1,-1,-7,-4,-1,1,-1
1461663816494070,-1,1,-5,-1,-3,-2,-2,-2
1461663816494070,-2,-3,-4,-1,1,1,2,1
1461663816503069,1,-4,-5,-3,-2,-2,-3,1
1461663816503069,-1,0,3,-3,-2,-1,-2,1
1461663816517080,-4,-2,-6,-7,0,1,-1,-4
1461663816517080,1,2,3,4,-3,-1,-1,-1
1461663816518078,0,0,-1,3,3,0,-1,1
1461663816518078,-1,-3,2,-7,-3,1,0,-2
1461663816533117,-1,1,-5,15,6,-2,0,-3
1461663816533117,-2,2,-2,-9,-3,-4,-3,-1
1461663816539153,1,-1,5,5,-1,-2,0,2
1461663816539153,-2,2,-7,-17,-5,-1,0,-1
1461663816563140,4,6,1,7,1,-2,-1,-2
1461663816563140,-1,-9,-10,-6,-2,-3,-4,-5
1461663816564113,-2,1,1,-9,-4,-3,-2,2
1461663816564113,-4,-10,-5,1,0,2,3,1
1461663816578122,5,1,-2,-4,-4,-2,-1,1
1461663816578122,-9,-3,-1,1,-2,-1,-3,-6
1461663816578122,1,-1,-1,-5,-5,-2,0,0
1461663816578122,0,0,0,0,2,2,1,0
1461663816592147,-10,-9,-3,0,1,1,5,-3
1461663816592147,7,9,-1,0,1,3,10,3
1461663816599154,-2,0,2,-1,-4,-7,-12,3
1461663816599154,7,2,-10,-17,-6,-4,6,1
1461663816614164,-2,-4,3,13,1,-6,-24,-5
1461663816614164,-11,-15,1,8,1,0,-14,-14
1461663816622152,4,25,6,8,3,1,1,-1
1461663816622152,-8,-37,-14,-12,-5,-7,-8,-1
1461663816637175,-3,6,-1,-20,-9,0,11,-1
1461663816637175,2,-2,6,25,12,1,4,2
1461663816638176,-3,0,2,19,5,4,2,3
1461663816638176,2,17,7,19,16,10,21,5
1461663816660180,0,7,-3,-12,-5,0,9,1
1461663816660180,2,-7,-4,-14,-8,-6,-19,-3
1461663816661181,7,0,0,3,0,-4,-6,1
1461663816661181,0,12,0,4,-2,-2,-9,0
1461663816674201,-3,-11,-7,-12,-2,1,5,-1
1461663816674201,1,-1,-1,-12,-7,-2,3,-3
1461663816682206,-14,-29,-12,-6,-3,-5,-3,-5
1461663816682206,7,14,14,-1,-4,-4,-12,1
1461663816697264,-6,-15,-11,5,3,8,32,0
1461663816697264,2,17,7,-3,1,8,12,12
1461663816698220,12,2,2,12,1,-3,-20,-5
1461663816698220,-12,-10,-8,-16,-15,-22,-26,-9
1461663816712318,3,13,15,21,8,-4,-26,-7
1461663816712318,-5,-21,-17,-1,2,-3,12,0
1461663816719370,2,10,1,12,13,14,20,6
1461663816719370,-1,-12,-5,-13,-3,3,-8,-4
1461663816734380,0,13,28,17,-12,-11,-7,0
1461663816734380,-2,-17,-14,-5,6,-4,-10,0
1461663816742395,16,17,18,20,8,6,-2,11
1461663816742395,-16,-32,-8,-8,8,5,12,-5
1461663816757401,-8,-17,-23,-1,5,0,19,-5
1461663816757401,6,2,-5,-11,-8,6,-1,7
1461663816758359,-2,37,-3,-37,-13,-7,-12,-5
1461663816758359,-10,-34,9,19,-2,-8,-19,-11
1461663816772367,11,-7,-14,-34,-11,1,7,-3
1461663816772367,-11,13,7,11,-5,2,8,7
1461663816779372,-4,-26,-11,-15,-5,13,51,16
1461663816779372,15,13,-21,-47,-27,-17,-52,-2
1461663816794383,-34,-7,18,42,6,-27,-53,-18
1461663816794383,-14,-4,-17,-44,-11,-2,-4,-20
1461663816802428,9,-3,18,55,18,3,-11,-1
1461663816802428,-6,-3,7,3,3,5,49,1
1461663816817398,0,-5,-19,-29,-6,9,14,5
1461663816817398,-8,3,-3,-78,-40,2,-47,-9
1461663816825445,1,-6,3,53,28,1,21,15
1461663816825445,16,3,10,60,17,-9,1,28
1461663816832397,31,44,-9,-43,-4,17,50,-3
1461663816832397,-1,-8,7,71,44,14,-21,-10
1461663816839409,-18,-9,-15,-33,-19,-22,-29,-25
1461663816839409,-8,11,33,5,1,16,32,15
1461663816854414,-54,-34,-24,-8,-22,-11,-15,-10
1461663816854414,25,19,-12,-24,-14,-7,9,19
1461663816862415,0,-5,-8,-52,-28,-13,-24,-8
1461663816862415,42,25,-28,53,40,-5,-30,-17
1461663816877425,-13,-1,11,-11,-16,-12,-21,-4
1461663816877425,-16,-14,11,-4,1,19,51,10
1461663816885430,-23,-35,4,0,-8,11,25,-7
1461663816885430,-35,82,-22,-106,-43,3,42,-1
1461663816892434,19,63,9,53,33,19,-16,2
1461663816892434,-6,52,44,96,26,-27,-30,6
1461663816899438,13,5,6,-53,-20,-7,-9,18
1461663816899438,30,-4,-60,-35,-1,2,0,-10
1461663816914466,-17,95,-34,29,-2,-19,-62,-44
1461663816914466,57,46,73,37,5,-3,3,9
1461663816922454,-24,85,-47,-29,0,1,13,5
1461663816922454,-28,-77,-42,-40,9,31,83,7
1461663816936466,-5,-115,58,48,20,9,-22,6
1461663816936466,-28,-35,-58,-10,-10,-20,-36,-15
1461663816945472,10,-118,-8,-55,-39,-34,-27,-18
1461663816945472,2,-73,61,96,36,19,-1,8
1461663816951475,12,-128,-48,-63,-14,17,127,57
1461663816951475,6,1,20,-15,-14,9,-55,-3
1461663816959481,14,112,1,-6,8,5,-56,-4
1461663816959481,-16,127,17,-63,-59,-65,-103,-55
1461663816974550,-25,48,-14,47,26,-1,43,-5
1461663816974550,1,-37,-27,2,15,6,-22,11
1461663816982499,-20,-6,13,-42,-47,-50,8,-11
1461663816982499,-27,-3,-46,-78,-9,18,29,-5
1461663816997510,64,-23,80,-9,18,14,1,21
1461663816997510,-22,-31,-69,-100,-52,2,60,7
1461663817005515,-8,-25,90,127,118,68,43,18
1461663817005515,-1,-1,-42,-22,6,-10,-34,-3
1461663817021525,26,10,-3,-95,-20,-30,-84,-17
1461663817021525,-6,-9,57,65,-17,-5,55,7
1461663817022526,9,1,-30,-2,3,29,21,19
1461663817022526,-34,-4,56,59,29,11,-13,-13
1461663817034534,67,12,-46,-22,6,-24,-84,-11
1461663817034534,3,-6,-2,-20,-28,-53,-50,-29
1461663817042539,-15,-18,-24,-8,-22,8,38,5
1461663817042539,-49,6,10,7,-10,0,-8,-17
1461663817059552,-10,12,-22,-34,-32,-8,25,-8
1461663817059552,14,-13,-11,-47,11,28,-34,5
1461663817065555,-61,0,-50,13,-7,-13,72,-5
1461663817065555,51,20,45,85,46,20,-20,36
1461663817079565,6,10,13,-26,-19,-24,-35,-3
1461663817079565,9,-14,-77,1,-4,-18,-5,-9
1461663817080572,13,7,5,-127,-11,31,38,-8
1461663817080572,-21,3,-3,1,-20,-9,-24,-31
1461663817094636,4,-10,18,11,8,-7,26,27
1461663817094636,21,-16,-42,-91,-45,-1,18,6
1461663817101641,-5,8,48,121,95,15,-50,-22
1461663817101641,-37,-8,8,-79,-43,6,16,10
1461663817119608,-8,-11,2,-91,-51,-28,-58,-30
1461663817119608,69,-7,25,42,43,34,112,45
1461663817125638,-24,0,3,5,-9,2,-71,-23
1461663817125638,32,-2,-6,23,-5,-21,66,38
1461663817140626,-7,3,-38,-8,-11,2,-44,-34
1461663817140626,56,0,27,39,9,-23,-15,-4
1461663817140626,-31,-13,8,1,-3,30,12,-3
1461663817140626,-7,5,1,23,7,-3,21,8
1461663817163625,-27,5,-64,-99,-45,-9,-3,18
1461663817163625,8,-10,86,14,-13,-15,43,9
1461663817163625,2,8,7,7,4,29,-44,-16
1461663817163625,-54,9,5,43,30,-8,-17,-24
1461663817176635,5,-6,19,21,31,2,-3,10
1461663817176635,6,-5,-13,-90,-40,-17,-19,-5
1461663817192646,2,5,-23,8,-16,-20,1,9
1461663817192646,5,8,39,-23,0,29,16,-16
1461663817199709,8,-5,72,64,37,52,74,16
1461663817199709,-22,-15,-47,21,41,-8,-40,35
1461663817200668,-58,5,-47,-66,-55,-45,-18,-30
1461663817200668,8,16,-24,-34,-25,-8,-102,-97
1461663817214661,49,-4,5,11,-20,-39,-4,27
1461663817214661,-2,-23,-26,-98,-46,15,-24,59
1461663817221725,49,5,18,27,44,7,-2,3
1461663817221725,-32,20,-25,-103,-22,5,73,2
1461663817236783,-49,-4,13,127,32,-4,-20,-21
1461663817236783,31,-23,5,-30,-5,-10,-21,25
1461663817244834,-39,2,-85,-100,-81,-24,0,-28
1461663817244834,-18,13,97,122,91,50,25,-47
1461663817259789,24,-6,-63,-43,15,34,34,37
1461663817259789,75,-21,24,-59,-46,-19,1,45
1461663817260785,29,10,55,81,70,24,46,-5
1461663817260785,-43,11,-9,9,-10,-10,10,-45
1461663817274815,-34,-10,-20,-12,-19,-4,-32,5
1461663817274815,-63,-11,0,42,29,-18,-66,-7
1461663817281812,30,0,-28,-83,-50,-57,-72,-6
1461663817281812,-52,9,-23,1,-27,-10,27,-27
1461663817296869,-39,-16,17,52,30,33,28,41
1461663817296869,59,-1,-41,-24,-27,-33,28,46
1461663817304876,-52,10,-13,39,-4,16,60,-26
1461663817304876,95,-4,-26,13,-19,6,12,24
1461663817319886,-61,0,26,4,9,19,-30,-17
1461663817319886,-33,-8,64,14,53,13,-47,-40
1461663817320844,2,4,4,58,25,-14,-19,5
1461663817320844,-65,4,-7,-36,-11,0,5,-3
1461663817334898,2,-16,-50,-97,-18,15,46,28
1461663817334898,45,-3,48,127,99,39,26,4
1461663817341901,2,10,35,-32,3,-12,-10,-22
1461663817341901,35,6,-3,-57,-19,24,36,0
1461663817356913,-1,-4,15,10,-3,11,-26,20
1461663817356913,33,-8,-25,-34,-54,-52,-26,29
1461663817364872,49,-5,-29,-44,-39,-48,-43,-7
1461663817364872,3,6,26,76,13,-36,-36,-23
1461663817379870,-22,-14,5,-44,-16,17,8,-18
1461663817379870,9,5,-27,-54,-52,-20,-20,-27
1461663817380871,-66,0,6,-18,-3,20,23,7
1461663817380871,-12,1,-39,-128,-22,-8,-46,-31
1461663817394924,57,-8,27,63,21,1,43,-5
1461663817394924,29,-9,15,19,52,51,28,6
1461663817401948,21,17,18,-78,2,-1,11,8
1461663817401948,-63,-1,4,83,24,-7,-16,20
1461663817416925,16,-9,-9,-71,9,-3,-10,-21
1461663817416925,-50,-2,4,53,8,28,87,23
1461663817424931,-26,-12,-11,-60,-61,-9,-52,-20
1461663817424931,14,4,0,25,27,21,97,26
1461663817439930,14,-12,-33,-18,-61,-54,-33,17
1461663817439930,21,5,-6,16,-9,-46,-96,-32
1461663817440931,-47,6,20,17,-10,-10,32,2
1461663817440931,124,-2,-19,-63,-11,12,-64,-8
1461663817454956,-104,0,-59,-26,16,1,59,-17
1461663817454956,-54,1,34,49,47,34,22,8
1461663817461942,93,-1,26,120,91,14,5,-21
1461663817461942,-11,4,17,-34,-30,-18,-20,2
1461663817476940,-37,6,-49,-31,-68,-19,4,-6
1461663817476940,51,0,64,34,24,27,18,0
1461663817484946,-51,3,7,-88,-61,-14,-21,-4
1461663817484946,-47,3,-16,127,123,39,-15,-6
1461663817500014,110,-10,-10,6,7,9,45,37
1461663817500014,2,1,-39,-69,-46,-7,-41,-26
1461663817500956,127,-5,18,35,6,0,-17,-14
1461663817500956,-66,10,-50,-128,-102,-31,11,26
1461663817513978,-20,-9,20,83,-14,-41,-97,-34
1461663817513978,-70,2,-14,1,16,-22,-46,-21
1461663817522030,31,-6,10,3,23,12,17,16
1461663817522030,-43,5,29,-32,-35,5,9,16
1461663817537039,-54,-11,-7,-34,-5,-2,-44,-15
1461663817537039,87,-1,-11,-45,-4,30,107,30
1461663817545044,-46,4,-45,-47,-6,-11,-57,-27
1461663817545044,-35,-1,-3,-30,14,-9,28,-9
1461663817559997,-42,0,82,91,42,19,16,-8
1461663817559997,18,-6,-19,-24,-9,1,6,3
1461663817560998,50,0,-17,68,-5,11,22,5
1461663817560998,-18,-4,13,-27,-18,-27,-30,-10
1461663817575008,66,-1,19,-55,4,-3,30,25
1461663817575008,17,2,-28,-34,14,3,-63,-7
1461663817582013,-35,-4,-23,15,-32,17,93,20
1461663817582013,29,-8,-2,10,3,15,-33,-10
1461663817597025,10,-7,1,8,7,-33,-55,14
1461663817597025,34,1,-3,-13,-14,-15,3,44
1461663817605031,-48,-3,15,6,30,23,4,-32
1461663817605031,53,19,9,-71,-47,-19,9,19
1461663817620039,-107,-4,-47,33,10,62,121,-15
1461663817620039,-5,-15,28,25,34,1,-55,-44
1461663817622040,-89,3,8,50,31,-29,-46,-6
1461663817622040,68,-4,-22,19,22,-8,-24,6
1461663817634051,127,-2,-2,-104,-61,-17,34,42
1461663817634051,-28,6,10,87,37,28,60,15
1461663817642055,-62,4,8,-21,6,9,-27,-19
1461663817642055,-9,-8,14,34,33,1,-5,-19
1461663817657066,110,-3,6,-47,7,12,20,19
1461663817657066,-31,1,-57,-51,-38,-4,13,-1
1461663817665072,-41,1,-7,-71,-44,-34,-77,-5
1461663817665072,-24,-2,-30,21,-36,-19,32,3
1461663817688087,-53,-3,39,17,17,2,-42,-5
1461663817688087,-37,6,-64,-73,-38,-17,-51,-47
1461663817689089,72,7,23,42,11,-17,25,17
1461663817689089,-74,-4,-22,-11,-37,-10,-24,-28
1461663817696093,79,-8,24,-10,2,20,-1,21
1461663817696093,2,8,-10,-39,33,28,48,33
1461663817702098,-53,-8,-56,55,48,4,13,-11
1461663817702098,90,-3,38,91,33,1,-7,1
1461663817717108,-31,-2,28,51,-6,-12,13,-1
1461663817717108,54,2,-7,-99,-60,-9,-23,0
1461663817725262,-50,1,52,61,43,17,-28,-13
1461663817725262,32,-6,4,30,30,9,45,15
1461663817740273,41,-10,-2,-27,-11,34,-12,-27
1461663817740273,-67,6,-7,-59,-65,-87,-79,-1
1461663817741216,-44,4,-26,-47,-9,-25,-14,-31
1461663817741216,127,-1,23,5,3,16,-49,31
1461663817754324,-86,-6,-7,-5,-10,-21,9,15
1461663817754324,-6,-12,-3,38,13,24,75,-20
1461663817762331,55,3,-30,-58,-18,11,16,24
1461663817762331,-54,-2,7,-14,-11,-26,-45,-34
1461663817777352,36,-5,-60,-88,-30,12,13,8
1461663817777352,-4,2,54,127,95,25,-13,-14
1461663817785359,36,-1,14,-21,13,7,36,25
1461663817785359,29,-1,82,-34,-22,2,21,8
1461663817799376,-6,-2,-43,26,44,0,-30,7
1461663817799376,-58,5,-7,-45,-45,-17,2,-18
1461663817807361,38,-8,-4,7,-7,9,14,-4
1461663817807361,-82,0,-20,-1,-17,-4,23,6
1461663817814366,54,-4,25,-23,-17,-14,-49,31
1461663817814366,-12,11,1,31,8,-5,-19,4
1461663817822412,8,-9,-5,-45,-11,14,35,2
1461663817822412,-105,-3,-34,-21,-14,-5,-29,-31
1461663817837384,27,-10,19,53,15,-19,-27,-3
1461663817837384,51,8,-8,-21,-15,13,64,23
1461663817845453,48,2,3,-16,-2,37,-10,9
1461663817845453,5,-6,-22,8,13,-10,-1,4
1461663817859399,-19,-10,-3,9,23,3,9,-8
1461663817859399,-43,2,27,17,-1,-2,0,-22
1461663817867424,-2,2,3,-26,-21,-14,7,-7
1461663817867424,64,-6,-9,-1,9,6,10,13
1461663817874429,-14,1,39,82,80,9,1,8
1461663817874429,-35,1,-20,-42,-23,-7,-10,-4
1461663817882426,-8,0,1,-30,-11,3,20,15
1461663817882426,8,4,15,-13,-6,10,57,14
1461663817897442,-16,-6,-21,-31,-34,-18,-66,-23
1461663817897442,-34,2,-12,15,1,6,-30,-18
1461663817905490,21,0,-6,-4,-18,1,48,20
1461663817905490,-34,8,-7,0,9,-47,-57,-28
1461663817919455,-4,-3,9,1,-18,-1,-3,-6
1461663817919455,24,10,5,16,6,4,63,33
1461663817927536,9,0,-21,-34,-15,2,-33,-16
1461663817927536,20,-7,7,23,19,30,13,14
1461663817942602,-42,-5,8,-17,-26,-21,-1,-21
1461663817942602,24,5,4,15,29,10,-14,-14
1461663817943550,-1,1,14,10,8,-7,6,2
1461663817943550,-19,-5,0,69,46,9,8,9
1461663817956558,4,-1,-7,-22,1,-3,-7,-1
1461663817956558,31,10,-1,-2,-14,-1,9,-12
1461663817965566,-39,3,7,-2,-16,-14,-19,-13
1461663817965566,8,-62,-11,-20,-21,-3,-16,12
1461663817980576,-59,-37,-9,-22,-25,-3,25,7
1461663817980576,40,-33,-18,-12,5,2,8,24
1461663817987581,-5,-128,14,21,12,-22,10,-22
1461663817987581,-8,-26,-9,-18,-4,67,-96,-26
1461663818002589,22,127,8,20,14,-19,-19,0
1461663818002589,-11,127,3,-12,-12,25,56,0
1461663818003590,-3,127,-8,2,-2,6,58,20
1461663818003590,0,81,-41,-88,-56,-33,20,10
1461663818016599,13,119,34,37,32,19,12,2
1461663818016599,-5,69,23,42,37,-5,-38,-8
1461663818032610,15,57,29,15,-1,-10,-30,-7
1461663818032610,2,30,-26,-11,10,-8,6,5
1461663818039616,-8,82,-33,-30,-19,-11,-15,-8
1461663818039616,2,67,5,-23,-12,-12,-7,-13
1461663818047622,-1,17,10,-5,1,12,-10,7
1461663818047622,-1,-45,12,20,4,-10,9,7
1461663818062676,-1,-89,-10,-11,-7,-10,5,-1
1461663818062676,-7,-128,-1,4,1,10,-11,-7
1461663818063677,-15,-128,-13,-11,-12,-28,-23,-2
1461663818063677,16,-128,8,0,1,-17,-51,18
1461663818076675,-55,-2,-11,-1,-5,12,87,-39
1461663818076675,-65,31,-15,-9,-11,10,-3,-14
1461663818084692,37,95,-6,0,-2,12,-5,43
1461663818084692,33,74,10,12,14,-5,30,17
1461663818099691,2,62,-3,1,-13,-6,-17,-35
1461663818099691,-5,50,-2,-6,-13,-10,-8,-17
1461663818107766,1,47,-29,-49,-18,3,2,28
1461663818107766,37,2,30,73,59,9,15,25
1461663818122731,3,17,26,45,29,9,-7,-30
1461663818122731,-29,21,0,12,0,0,1,-21
1461663818123709,22,-14,-1,30,2,-2,-17,28
1461663818123709,16,-14,-5,-29,-23,-5,5,8
1461663818145724,-18,-6,-11,-28,-17,2,-12,-39
1461663818145724,-17,-28,-6,-8,-11,-8,-2,-11
1461663818146727,14,-25,-11,-3,-12,-10,-12,27
1461663818146727,2,-109,3,-11,-7,0,12,10
1461663818159750,-22,80,9,8,14,2,-13,-28
1461663818159750,-7,55,-1,-10,-1,-20,-3,-4
1461663818167755,7,28,8,3,4,-27,-37,18
1461663818167755,-3,42,-7,-5,0,89,57,5
1461663818182749,-2,-23,-6,-1,-3,-7,-11,-21
1461663818182749,-7,-27,3,-2,0,-5,21,3
1461663818183766,9,-9,8,8,2,4,6,19
1461663818183766,3,0,-7,0,-5,-38,-40,-1
1461663818198762,-5,-30,-4,-12,-10,-1,10,-19
1461663818198762,-4,11,-6,-6,-5,1,1,-5
1461663818204823,3,-10,11,11,3,1,-1,11
1461663818204823,12,19,8,-1,-6,-7,0,4
1461663818219790,-10,-11,-37,-20,2,9,-7,-17
1461663818219790,-11,4,10,-2,0,-6,-9,-7
1461663818227781,7,-20,3,14,13,16,7,12
1461663818227781,9,27,24,-3,-3,-2,-2,1
1461663818242792,-3,11,17,9,-6,-12,-5,-17
1461663818242792,-13,-17,-14,-7,-1,2,-4,4
1461663818243792,0,-26,-35,-2,-1,8,2,24
1461663818243792,4,20,-5,-8,-5,-9,4,0
1461663818256802,-5,-6,-1,-1,-3,-4,-5,-22
1461663818256802,-3,-2,5,1,1,2,-3,-2
1461663818264820,4,-9,-8,-5,0,5,-4,14
1461663818264820,3,5,-2,-1,0,-18,3,1
1461663818279830,-2,-12,-18,-9,-10,9,1,-19
1461663818279830,0,-1,20,7,4,-9,-3,-1
1461663818287882,9,12,-1,1,4,17,7,15
1461663818287882,-3,-11,-14,-2,0,-4,1,0
1461663818302892,-2,-3,7,-6,-6,-7,-6,-15
1461663818302892,1,1,-6,6,4,9,2,1
1461663818303851,4,8,7,-3,-6,-18,-3,12
1461663818303851,4,11,-2,-1,-1,3,2,1
1461663818316856,-4,-4,-1,-3,-3,-4,-2,-13
1461663818316856,1,-5,1,1,7,-1,-2,3
1461663818324906,2,-1,3,-1,-1,-1,3,7
1461663818324906,-3,-6,-5,-2,-4,-2,-3,-3
1461663818339918,-2,12,10,3,1,-6,2,-8
1461663818339918,-8,-16,-9,-4,-1,3,-2,1
1461663818347925,-4,-5,1,-8,-2,4,0,2
1461663818347925,1,-9,-17,7,1,-3,1,-1
1461663818362876,0,-2,6,7,2,0,-3,-5
1461663818362876,0,12,29,3,-2,4,1,1
1461663818363877,0,-8,-13,-7,-3,2,2,3
1461663818363877,2,8,6,7,2,-3,-3,-1
1461663818377900,-6,-14,-13,-7,-1,1,-2,-3
1461663818377900,1,-1,0,3,-2,2,-1,2
1461663818384904,2,-4,-4,-1,-1,-1,-1,0
1461663818384904,7,32,19,-2,1,0,1,1
1461663818399969,-15,-56,-46,-14,-6,0,-4,-6
1461663818399969,-1,0,-7,-3,-2,-3,-3,-1
1461663818409918,0,-4,-7,2,1,-1,0,2
1461663818409918,0,2,0,-3,-3,-2,-2,-2
1461663818422940,4,13,15,2,0,-1,-1,-1
1461663818422940,-1,-1,-3,-1,-2,-2,-1,0
1461663818423920,-2,-2,5,3,1,-1,-1,0
1461663818423920,1,-1,0,-2,0,-1,0,-2
1461663818436951,0,4,6,1,1,-1,0,-2
1461663818436951,2,-7,-20,-3,-1,1,-1,1
1461663818444956,-1,-5,12,2,-2,-2,-1,0
1461663818444956,-9,-9,-5,-5,-1,-2,-3,-4
1461663818459946,-1,1,10,1,-7,-6,-4,-3
1461663818459946,4,-3,-2,-2,2,5,3,3
1461663818467963,4,3,0,1,3,1,1,1
1461663818467963,-3,-5,-1,-6,-3,-3,0,-2
1461663818482973,0,5,-1,-1,-4,-6,-3,-2
1461663818482973,1,1,-4,-2,-2,-3,-1,1
1461663818482973,-2,7,9,-2,-3,1,0,-1
1461663818482973,-4,-23,-18,-8,-5,-1,-1,-5
1461663818506037,3,2,-1,2,-1,-1,-3,-3
1461663818506037,-4,-3,2,1,1,1,1,3
1461663818506990,-3,-6,-3,1,2,2,1,-2
1461663818506990,0,0,-4,-5,-6,-2,-2,-2
1461663818519990,3,2,10,4,6,2,0,1
1461663818519990,-3,-6,-5,1,0,-1,-2,1
1461663818528014,-3,10,5,-1,-1,-2,0,-2
1461663818528014,0,-1,1,3,2,-1,0,-3
1461663818543005,-6,-3,-6,-3,-4,0,-1,0
1461663818543005,-1,-3,-3,-2,-3,-2,-2,2
1461663818543005,6,7,6,1,2,0,-1,-1
1461663818543005,-2,-10,-9,-1,0,-2,0,-6
1461663818557052,-5,5,4,-1,-2,-2,-1,0
1461663818557052,-1,-9,-5,-2,-3,-1,-1,2
1461663818565031,8,1,-2,1,-2,-1,0,1
1461663818565031,0,0,-1,0,2,-3,-1,-3
1461663818579041,-8,-5,1,-9,-6,-2,-1,-2
1461663818579041,-2,2,-3,1,3,3,0,1
1461663818588072,6,1,2,-19,-8,-3,-1,-2
1461663818588072,-3,-2,3,44,11,1,-3,-3
1461663818604049,0,-4,2,0,4,1,0,2
1461663818604049,-2,6,2,-1,0,-3,0,2
1461663818605061,-9,-11,-4,5,4,-2,0,-2
1461663818605061,-2,-1,-5,-21,-12,-2,0,-3
1461663818617057,7,3,-1,3,0,0,-4,0
1461663818617057,-6,-10,-4,-1,-3,-1,-4,-3
1461663818626062,-2,-4,-3,-4,-2,-1,-1,-3
1461663818626062,-5,2,1,-6,-3,-3,-1,-2
1461663818639071,7,5,1,2,-1,-1,1,2
1461663818639071,-3,-7,-3,-7,-4,-4,-2,-1
1461663818648078,-2,6,1,2,-3,0,0,-2
1461663818648078,-1,-3,-2,-2,-1,0,-2,-3
1461663818671107,5,6,-1,1,-2,-2,-2,0
1461663818671107,1,-3,1,2,0,0,0,2
1461663818671107,-1,-3,-4,2,-2,0,-2,-4
1461663818671107,0,-1,-4,-1,-2,0,0,-2
1461663818677098,2,-2,2,-4,-2,-3,0,-3
1461663818677098,1,5,-5,-14,-5,-3,-2,1
1461663818685117,-5,-5,0,34,11,3,0,0
1461663818685117,1,-2,-1,-18,-4,-2,-2,-4
1461663818699126,2,4,12,16,3,1,-2,0
1461663818699126,-1,1,2,-5,-2,-2,0,2
1461663818708177,1,3,3,19,9,2,-2,-2
1461663818708177,0,6,0,-5,-4,-1,-1,-4
1461663818722189,-7,-28,-22,-10,-7,-3,-3,-2
1461663818722189,-2,2,-2,1,0,-1,0,0
1461663818730149,-3,1,-3,-13,-7,-3,0,-1
1461663818730149,0,3,4,2,0,1,0,-3
1461663818737199,-1,-2,-3,-9,-2,-1,-1,0
1461663818737199,2,3,0,4,0,0,0,1
1461663818745206,-9,-6,-1,-8,-3,-2,0,-2
1461663818745206,1,1,3,4,2,0,-1,-3
1461663818759215,-1,3,-2,-5,-1,-3,-1,1
1461663818759215,-1,-1,-2,2,-1,-1,1,2
1461663818768200,-2,1,3,-4,-2,-3,-2,-3
1461663818768200,1,-3,-3,-1,2,1,0,-3
1461663818782185,0,-1,-5,-4,-3,-2,-4,0
1461663818782185,-1,-1,1,5,1,-3,0,1
1461663818790239,-1,-2,-2,-5,0,0,-1,0
1461663818790239,-3,-4,-6,-6,-4,-2,-1,-3
1461663818797245,1,-1,-4,-7,-5,-2,0,1
1461663818797245,-2,-2,3,9,0,-1,-1,2
1461663818805250,3,6,-2,-2,-2,-1,-1,0
1461663818805250,-1,0,2,4,1,1,0,-2
1461663818819200,0,2,-3,-10,-4,-3,-3,-1
1461663818819200,1,-4,-1,1,1,-1,-2,1
1461663818827218,-4,-3,-2,1,-1,-2,-1,-3
1461663818827218,-2,1,-3,-1,-3,-2,-2,-5
1461663818842273,0,2,4,3,-1,0,1,3
1461663818842273,1,2,1,-3,-3,1,0,2
1461663818850279,0,-1,-2,-5,-2,-1,0,-2
1461663818850279,-2,0,-2,0,-2,-2,-2,-3
1461663818857284,-1,-1,-1,-2,-1,-2,-3,0
1461663818857284,-1,-2,-4,-3,-1,-2,-1,-1
1461663818865244,-3,-2,2,-1,1,0,0,-2
1461663818865244,-3,-4,-3,-3,-3,0,-1,-3
1461663818879266,1,-1,-1,1,0,0,-1,0
1461663818879266,1,4,2,0,-2,0,-1,1
1461663818887272,1,0,-1,-1,-2,-2,-1,-1
1461663818887272,-2,-6,-3,-4,-2,-3,-1,-3
1461663818902273,1,-4,-4,-3,0,-1,0,0
1461663818902273,-1,2,4,1,2,0,0,0
1461663818910267,-2,-1,-1,-3,-3,-1,-1,-3
1461663818910267,-3,-5,-1,-2,-2,-2,-3,-3
1461663818917284,2,-6,-7,-6,-4,-2,-1,2
1461663818917284,-4,1,1,-3,-4,-3,1,1
1461663818924313,0,1,2,11,5,0,-2,-4
1461663818924313,4,4,2,4,3,1,-1,0
1461663818939323,0,9,4,3,0,-1,0,2
1461663818939323,-7,-18,-7,-5,-1,-1,0,-2
1461663818947290,-3,-4,-3,-8,-6,-2,-1,-2
1461663818947290,1,0,-1,-2,-3,-1,0,-3
1461663818962312,1,-3,1,0,1,-2,-2,0
1461663818962312,1,3,-1,-4,-3,1,-1,1
1461663818970345,1,2,0,-7,-4,-2,-1,-1
1461663818970345,-2,-7,-7,-3,1,0,0,-3
1461663818985317,-2,-2,5,10,0,0,-2,1
1461663818985317,-3,-3,-7,-1,2,-1,-1,2
1461663818986318,-1,-3,-1,-4,0,-1,-1,-2
1461663818986318,1,6,1,-2,-2,-1,-3,-2
1461663819001342,0,-3,-4,-2,-3,-3,-2,-1
1461663819001342,1,-1,-2,-1,-1,-2,-1,1
1461663819008333,-1,0,2,2,0,-1,-2,-3
1461663819008333,-3,-1,-1,-4,-3,-2,-1,-3
1461663819023365,-7,-7,-4,-6,0,0,0,0
1461663819023365,1,0,2,6,3,0,0,1
1461663819030371,0,-3,0,3,0,-1,-1,-1
1461663819030371,-4,-2,0,1,0,-1,-1,-3
1461663819045381,-1,-3,-5,-4,-1,-1,0,3
1461663819045381,4,3,1,-4,-1,-1,1,-1
1461663819046376,-2,-3,-2,-8,-3,0,-1,-3
1461663819046376,-5,-4,-3,-5,-4,-1,-1,-4
1461663819059369,0,0,2,6,1,-1,-3,1
1461663819059369,0,-1,1,-3,-4,-4,-2,1
1461663819067396,5,3,3,11,4,-1,2,-1
1461663819067396,-4,-2,-8,-2,1,0,0,-3
1461663819082391,2,-1,-1,-3,-2,0,0,-1
1461663819082391,-8,-8,-3,-2,-4,-2,0,0
1461663819090406,0,0,-3,-8,-5,-2,-2,-2
1461663819090406,-3,0,-1,-3,-4,-3,0,-3
1461663819105431,-1,-3,-3,-5,-4,-2,-2,1
1461663819105431,4,1,-1,0,1,1,-1,1
1461663819106404,-3,-1,3,5,1,0,1,-3
1461663819106404,-1,0,2,6,3,1,-1,-2
1461663819119426,3,9,4,1,2,-2,0,1
1461663819119426,2,-8,-3,2,-2,0,-1,2
1461663819127511,0,2,-2,-5,0,0,0,-1
1461663819127511,-7,-9,-1,-1,-3,-1,-2,-4
1461663819142555,-5,-8,-5,-3,-1,-2,-1,0
1461663819142555,1,1,-1,-2,-1,-2,0,0
1461663819150587,-1,0,-3,1,-2,0,-1,-3
1461663819150587,-1,1,-1,-4,-3,-2,-2,-5
1461663819165544,0,0,3,7,3,-1,-1,0
1461663819165544,2,2,1,0,0,1,0,0
1461663819166538,-2,-7,-4,-1,0,-1,0,-2
1461663819166538,-4,0,-1,-2,-2,-4,-2,-5
1461663819179575,1,1,-3,-3,-6,-1,0,0
1461663819179575,2,3,-1,-2,-1,-1,-1,-2
1461663819187581,-6,-3,0,-2,1,0,-1,0
1461663819187581,1,2,1,1,-2,-1,-1,-3
1461663819201577,-2,-4,-2,-2,-3,-2,-3,0
1461663819201577,1,1,3,5,0,1,0,2
1461663819210583,-4,-4,-6,-1,0,-1,0,-3
1461663819210583,-1,2,7,4,0,1,1,-2
1461663819225594,-2,-8,-3,7,3,0,0,1
1461663819225594,7,6,-3,-9,-5,-1,0,1
1461663819225594,3,0,-2,-4,-1,-1,-1,-1
1461663819225594,-4,-2,-3,0,0,0,-2,-3
1461663819239627,-3,0,-1,-6,-3,0,-3,0
1461663819239627,-2,-1,1,0,0,-1,0,-2
1461663819247633,-1,-1,0,-3,-4,-1,-2,-2
1461663819247633,4,9,3,3,-1,-2,-1,-2
1461663819261616,-1,-3,-4,-8,-3,-1,-1,1
1461663819261616,-3,-8,-1,4,1,1,-1,0
1461663819270622,-3,-7,-2,0,2,2,1,-2
1461663819270622,-4,-5,-4,-2,-1,-2,-1,-1
1461663819285633,1,5,1,-2,-1,-3,0,1
1461663819285633,0,3,-3,-4,-2,0,-2,0
1461663819285633,0,0,2,4,0,-1,0,-3
1461663819285633,-1,4,-3,-5,-1,0,-1,-4
1461663819299702,-2,-14,-4,3,-3,-1,-2,-1
1461663819299702,-2,4,4,5,4,1,0,1
1461663819307708,-2,-9,-7,-3,-3,-1,-1,-3
1461663819307708,-1,-2,-4,2,-1,-1,-2,-2
1461663819321672,3,2,0,-6,-2,-1,-2,0
1461663819321672,1,0,-1,-3,-1,-2,-1,-1
1461663819330678,-1,4,3,2,2,1,-1,-1
1461663819330678,-3,-5,-3,-5,-5,-4,-2,-3
1461663819353729,0,-2,-2,2,1,0,0,3
1461663819353729,0,-2,-2,0,-1,-3,0,0
1461663819354687,0,2,-1,-4,-2,-3,0,-2
1461663819354687,-3,-5,-2,-3,-1,0,-3,-2
1461663819359689,1,2,-1,-3,-1,-1,0,0
1461663819359689,-1,-1,-1,-2,-2,-2,-1,-1
1461663819367739,1,0,-1,0,-1,-1,1,-2
1461663819367739,-4,-2,3,1,-4,-3,-1,-4
1461663819381707,-2,-2,0,1,-1,0,0,2
1461663819381707,-1,1,0,1,-1,-1,-1,-1
1461663819390698,-2,1,-1,-2,-2,-1,-2,-3
1461663819390698,-2,-1,-3,-3,-1,0,-2,-3
1461663819404724,1,2,-4,-14,-4,-2,0,0
1461663819404724,0,-3,6,22,5,-1,-1,0
1461663819405708,-1,10,-1,-4,0,1,-1,-1
1461663819405708,-4,-15,-9,-5,-5,-1,-2,-4
1461663819419728,0,-2,-1,2,1,-1,-2,2
1461663819419728,2,1,-3,-11,-4,0,-2,0
1461663819427735,-4,-6,-2,-1,-2,-2,-1,-2
1461663819427735,0,6,4,2,0,-2,0,-3
1461663819441733,0,0,-3,-6,-5,-2,-3,0
1461663819441733,-2,-3,-4,-10,-3,-1,1,0
1461663819449795,4,9,9,17,8,3,-1,1
1461663819449795,-3,-6,-5,-6,-3,-1,0,-2
1461663819464762,1,0,-2,1,0,0,-1,0
1461663819464762,-3,-1,-2,-6,-3,-1,-1,0
1461663819465761,0,-1,1,-1,-3,-1,-1,-2
1461663819465761,-5,-5,-4,-3,-2,-2,-3,-4
1461663819479772,0,0,5,5,0,0,1,1
1461663819479772,-1,0,-2,-1,-1,0,0,1
1461663819487826,-3,-3,-6,-14,-6,-3,-2,-3
1461663819487826,1,4,5,9,-1,-2,-1,-1
1461663819501837,4,3,3,0,0,-3,-1,2
1461663819501837,-1,-7,-7,-3,-2,-2,0,-1
1461663819510790,-2,-8,-2,4,-1,-2,-2,-3
1461663819510790,2,-1,-4,-5,-3,0,0,-2
1461663819524819,-1,-1,-2,-3,0,2,-2,1
1461663819524819,2,3,0,1,1,-2,0,2
1461663819525794,-1,1,0,-1,-1,-1,1,-2
1461663819525794,-4,-6,-6,-9,-2,-2,-1,-2
1461663819539801,1,0,-1,-3,0,-1,-1,3
1461663819539801,1,7,4,5,0,-1,0,0
1461663819547806,-4,-15,-2,-1,1,1,0,-1
1461663819547806,2,5,2,1,-1,-1,0,-3
1461663819561835,-1,-10,-6,1,-1,0,-2,0
1461663819561835,-1,-2,-2,-1,0,1,0,1
1461663819569840,0,3,1,-3,-4,-2,-1,-2
1461663819569840,-2,0,0,0,0,-1,2,-2
1461663819584851,-1,-3,-5,-6,-1,-2,-1,2
1461663819584851,0,0,-1,-4,-1,-3,-1,0
1461663819585834,-5,-2,-2,-1,-1,-4,-2,-4
1461663819585834,-1,-3,-3,-5,-2,-1,-1,-2
1461663819599906,4,7,6,6,1,-1,-2,-1
1461663819599906,-4,-8,0,2,0,0,0,-1
1461663819607916,-1,0,-4,-7,-2,-1,0,-3
1461663819607916,-1,-3,-3,-3,-2,-2,-1,-2
1461663819621877,-1,-2,-3,-1,-1,-1,-1,2
1461663819621877,0,5,6,2,3,1,-1,1
1461663819629865,2,3,1,-2,1,-1,0,-2
1461663819629865,-3,-3,0,0,0,-3,-3,-3
1461663819644877,3,-3,-7,-8,-3,0,0,2
1461663819644877,-5,1,4,6,-3,1,-2,0
1461663819645876,-1,-1,1,4,1,1,0,-3
1461663819645876,-3,1,0,-2,-1,-1,-4,-4
1461663819659885,1,2,2,2,-1,-1,-1,1
1461663819659885,1,-4,-4,-5,-1,-1,0,0
1461663819667891,-5,-1,-2,-3,-4,-1,1,-2
1461663819667891,-1,3,-1,1,-2,0,0,-3
1461663819681900,0,3,3,-4,-1,-1,-1,2
1461663819681900,-4,-7,-6,5,4,1,-1,-2
1461663819689906,-2,-7,-3,1,0,1,-1,-3
1461663819689906,-5,-8,-4,-1,-3,-1,-1,-1
1461663819704916,2,4,4,8,-2,-2,-1,0
1461663819704916,3,-1,-2,-5,3,-1,0,0
1461663819712923,0,0,-2,1,0,-2,-1,-2
1461663819712923,0,2,4,8,3,-1,-3,-3
1461663819719935,1,-3,-5,-5,0,-1,-1,1
1461663819719935,-1,0,0,-5,-4,-1,1,-1
1461663819727934,-4,-2,-4,-6,-2,0,-2,-3
1461663819727934,-2,-7,-6,-6,-4,-3,-2,-2
1461663819741982,-1,-1,7,13,1,1,0,1
1461663819741982,-2,-1,-3,-4,-2,-1,0,0
1461663819749988,0,5,3,1,-1,1,-1,-3
1461663819749988,-1,0,-3,-4,-3,-2,0,-2
1461663819764961,-7,2,-2,-4,-2,-1,-3,-1
1461663819764961,-2,-7,-5,-4,0,0,-2,0
1461663819773006,0,4,2,1,-2,-1,-1,1
1461663819773006,-2,-2,-6,-10,-6,-1,-1,-2
1461663819779989,2,-4,-2,3,2,-1,-1,-1
1461663819779989,1,2,0,3,2,1,-1,-1
1461663819787995,-4,-5,-2,-12,-7,-3,-2,-3
1461663819787995,0,3,3,9,3,-1,-1,-3
1461663819811007,1,-3,-6,-4,1,2,1,3
1461663819811007,-1,1,0,0,1,-2,-2,0
1461663819812005,-1,-5,-5,-1,0,-1,-2,-2
1461663819812005,2,2,4,0,-2,0,-1,-2
1461663819825003,-3,0,-1,0,-1,-1,-1,-3
1461663819825003,1,0,-4,-1,-2,0,-1,0
1461663819834025,-3,-2,-2,-1,-2,-2,0,0
1461663819834025,0,-6,-3,-1,-2,0,-1,-2
1461663819848077,-2,-1,0,0,0,-2,0,1
1461663819848077,-3,1,0,-6,-4,-2,-1,-1
1461663819850021,-3,2,4,4,0,-1,1,-2
1461663819850021,-1,-6,-6,-3,-1,-2,-2,-4
1461663819862040,2,4,2,2,-1,-1,1,2
1461663819862040,-4,-6,-1,1,1,1,1,0
1461663819871036,1,3,4,5,0,0,-1,-2
1461663819871036,-5,-5,-4,1,0,-1,-3,-2
1461663819893052,3,-4,-3,-2,-3,-4,-2,2
1461663819893052,1,4,-2,2,0,0,2,2
1461663819895054,2,-2,2,6,0,-1,0,-4
1461663819895054,0,-3,-11,-8,-5,-3,-3,-2
1461663819908120,1,0,-3,-11,-10,-2,-4,0
1461663819908120,2,1,4,1,3,1,0,0
1461663819910065,-7,-4,-1,8,7,2,0,-3
1461663819910065,7,7,5,1,-1,-1,0,0
