timestamp,emg1,emg2,emg3,emg4,emg5,emg6,emg7,emg8
1448711446667268,0,-3,8,-1,-1,-1,1,-2
1448711446667268,0,2,-22,-4,-2,0,0,1
1448711446674274,-1,1,9,-3,0,-1,-1,0
1448711446674274,-1,-1,2,0,-1,-3,0,1
1448711446690785,-4,-6,-19,-4,0,-2,-3,-2
1448711446690785,-3,3,12,2,0,0,0,-1
1448711446692286,-2,-2,3,2,-1,0,-2,0
1448711446692286,0,-4,-19,-1,-2,-2,-2,-1
1448711446713301,1,0,-2,-1,-1,-2,-1,-1
1448711446713301,1,-4,0,-4,-1,0,-1,-1
1448711446714802,-1,1,6,-3,-2,-1,1,0
1448711446714802,1,-1,6,-1,-2,-1,1,0
1448711446728312,-4,1,6,1,0,1,1,0
1448711446728312,-1,0,-4,0,0,-1,-1,-1
1448711446734316,-1,0,-2,-5,-2,-2,-2,-2
1448711446734316,0,-2,-5,-3,-2,0,-1,-1
1448711446750828,0,1,-3,-3,-1,-1,-1,0
1448711446750828,-3,-6,-1,-3,-2,-2,-4,-2
1448711446752329,-3,3,6,5,3,-3,-1,0
1448711446752329,-1,-2,7,2,0,0,1,-1
1448711446773344,-2,-1,-15,-3,0,-1,0,-1
1448711446773344,0,-2,-2,-4,-2,0,-1,-1
1448711446774845,3,1,-2,1,-1,0,0,-2
1448711446774845,1,0,17,2,2,0,-1,0
1448711446787355,0,-3,-5,-1,-1,-4,-2,-2
1448711446787355,0,0,8,1,1,-2,0,0
1448711446795860,-2,-4,-8,-2,-1,-4,-3,-2
1448711446795860,-1,2,-10,0,-2,0,0,-1
1448711446810871,-2,-2,13,0,-2,-2,0,-1
1448711446810871,0,-7,-36,-5,-2,-2,-1,-1
1448711446812372,0,-2,7,1,0,-1,1,0
1448711446812372,-3,1,4,-3,-1,-2,-1,0
1448711446833387,0,3,7,-2,-1,-1,-1,-2
1448711446833387,-5,-2,-2,-2,0,-1,-1,-3
1448711446834887,2,-4,-11,-1,-2,1,-1,0
1448711446834887,0,-5,-10,-3,0,-1,-2,2
1448711446846897,-2,-4,-2,-1,-3,-1,-2,-2
1448711446846897,-1,-2,-1,-1,-2,0,-2,-1
1448711446855902,0,2,16,3,-1,2,0,-1
1448711446855902,-2,-1,-14,-3,-1,-1,0,-1
1448711446870914,-3,-6,-26,-6,-3,-1,-1,-3
1448711446870914,-3,1,7,1,2,-1,0,-1
1448711446872415,1,-5,-4,-2,-2,0,-1,-2
1448711446872415,-3,4,14,2,-1,0,0,0
1448711446893430,-1,-3,-9,1,1,0,-1,2
1448711446893430,0,-1,6,-1,-3,-2,-2,-1
1448711446894931,-1,-1,-22,-5,-1,-2,-2,-2
1448711446894931,2,0,13,-1,0,-1,-1,-2
1448711446906937,0,1,-19,0,1,-1,-1,1
1448711446906937,-3,2,18,1,-1,0,-1,0
1448711446915944,-2,-1,4,1,1,-2,-1,2
1448711446915944,-1,0,-2,0,0,0,-1,-2
1448711446930956,-4,-1,9,0,1,-1,-1,-2
1448711446930956,-1,-3,-31,-7,-3,-2,-2,-1
1448711446932457,-1,4,15,2,-1,1,0,-2
1448711446932457,-2,-8,-15,2,-1,1,-2,-2
1448711446953470,1,-4,14,-2,-1,-1,-1,-1
1448711446953470,0,-3,-12,-3,0,1,-1,-3
1448711446954971,-1,-1,-17,-4,-2,-2,-1,-1
1448711446954971,-2,-5,-9,-5,-3,-3,-4,-2
1448711446975486,0,0,7,1,-1,-3,0,2
1448711446975486,1,-1,13,4,2,0,-2,-3
1448711446977487,-3,-4,-14,-3,-2,-1,-1,-3
1448711446977487,0,7,10,-1,1,0,0,-2
1448711446990997,2,2,-2,1,2,-1,0,1
1448711446990997,-4,2,11,-1,-1,-2,1,1
1448711446992998,-3,0,3,1,3,2,-1,1
1448711446992998,-3,-3,-10,-2,0,-3,-1,1
1448711447013025,-1,3,20,0,0,-2,-2,-1
1448711447013025,1,0,1,0,0,0,0,1
1448711447015016,0,-3,0,5,0,0,0,0
1448711447015016,-2,-8,-30,-15,-6,-3,0,-1
1448711447027024,0,1,-6,-4,0,0,0,0
1448711447027024,2,5,11,4,0,-1,0,1
1448711447036042,0,2,40,3,0,1,1,-1
1448711447036042,-1,-2,-52,-2,-2,0,-1,-4
1448711447050541,0,-7,-11,0,-1,1,0,0
1448711447050541,0,0,5,-4,-3,0,0,1
1448711447052540,0,-7,-9,-3,-2,-2,-3,-3
1448711447052540,0,4,21,5,1,-1,-2,-1
1448711447073057,-1,8,3,2,1,-1,-1,-1
1448711447073057,-2,-2,-2,-1,2,0,0,-1
1448711447075058,-3,-7,3,-2,0,0,-2,3
1448711447075058,-1,0,20,0,-1,-2,-3,-2
1448711447087067,5,1,-24,-3,-3,-1,0,13
1448711447087067,0,7,16,4,0,-1,1,-2
1448711447096084,-5,-6,-11,-3,-2,-3,-4,-13
1448711447096084,-6,-1,17,-1,1,-1,-3,-1
1448711447110582,-3,10,0,1,-1,-1,-2,-5
1448711447110582,-5,-26,-6,-5,-3,-2,2,4
1448711447112583,1,7,10,-1,0,0,-1,-1
1448711447112583,0,-7,-3,3,0,0,2,2
1448711447133097,-1,1,6,-1,-1,-1,0,-1
1448711447133097,0,2,-5,1,0,0,-2,6
1448711447135099,-2,3,-10,-1,-1,0,1,-12
1448711447135099,1,-3,1,-3,-2,-2,-2,-4
1448711447147107,-4,-6,18,-2,-3,-1,-1,-5
1448711447147107,0,3,-14,1,-1,-2,-4,-7
1448711447156114,-1,-1,2,-4,0,0,1,4
1448711447156114,2,7,15,3,0,2,0,1
1448711447170624,0,-7,-1,0,1,-1,1,-3
1448711447170624,-5,-5,-14,-3,-1,-1,-4,-1
1448711447172625,1,7,20,3,0,-3,-2,3
1448711447172625,-1,-2,-11,1,-1,0,-1,-1
1448711447193641,-5,-9,-28,-13,-6,-2,-5,-5
1448711447193641,2,5,8,3,1,-1,1,-1
1448711447195643,-2,1,-13,0,0,-1,1,4
1448711447195643,-3,-6,13,0,1,-2,-8,13
1448711447206651,-4,-12,8,2,1,0,0,-15
1448711447206651,-5,-2,-29,-8,-3,0,7,4
1448711447215657,4,-6,12,2,1,-1,0,-2
1448711447215657,-2,-1,1,-2,-1,-1,2,6
1448711447230684,-2,-8,-19,-7,-3,-2,-3,5
1448711447230684,-2,0,8,1,0,-1,-2,-3
1448711447232186,-1,7,-10,-4,-1,0,1,9
1448711447232186,-1,4,-1,0,-3,-2,0,-8
1448711447253184,3,6,11,2,0,0,-3,-4
1448711447253184,6,3,5,0,-1,-1,-2,-3
1448711447254685,-1,3,10,0,-3,-1,-3,1
1448711447254685,2,2,-38,-5,0,0,2,2
1448711447267194,-4,8,1,-1,-1,-2,-1,-3
1448711447267194,-7,-29,-28,-11,-3,-1,-5,-7
1448711447275698,1,10,2,2,0,1,-2,-2
1448711447275698,2,0,12,1,-1,1,0,-3
1448711447290709,2,9,4,6,3,3,7,14
1448711447290709,1,11,3,-1,-2,-3,-12,-21
1448711447292211,-5,-2,-2,-2,-3,-2,-2,-4
1448711447292211,0,-11,3,-1,-1,-1,-2,-9
1448711447313225,-6,-11,-12,-1,-1,-1,-1,1
1448711447313225,-1,6,14,3,0,2,0,6
1448711447314727,2,-6,-22,-6,-4,-1,1,0
1448711447314727,0,-1,-7,-1,-2,-1,-3,-2
1448711447335742,-3,3,10,-3,-2,-2,-2,1
1448711447335742,-1,-9,17,4,0,0,1,5
1448711447337243,-1,1,-8,-5,-3,-2,-1,-2
1448711447337243,-2,6,-2,-2,1,-1,-1,0
1448711447350752,-3,-13,-10,0,-2,-3,-13,-6
1448711447350752,-2,0,-3,-4,-1,-1,12,2
1448711447352254,-3,0,0,2,0,1,1,-6
1448711447352254,1,-1,9,0,-2,-2,0,-2
1448711447373768,0,5,0,-1,0,1,2,-6
1448711447373768,-4,12,2,1,0,-1,-6,-4
1448711447375270,-4,-32,-1,3,-1,-3,-4,3
1448711447375270,-4,-7,-20,-12,-3,-1,0,-2
1448711447396285,3,1,6,1,-2,0,0,-2
1448711447396285,1,4,-19,-7,-2,0,1,2
1448711447397786,-5,3,9,0,-1,-1,-5,-4
1448711447397786,-5,3,8,4,-2,-3,-6,-5
1448711447410793,3,-6,11,3,1,-2,-1,2
1448711447410793,3,-1,-24,-5,-1,-2,-1,2
1448711447412296,-2,-5,-4,0,2,1,1,0
1448711447412296,1,6,16,0,-3,-2,-1,0
1448711447433312,-1,12,17,2,0,1,2,1
1448711447433312,0,-4,5,3,-2,-3,0,-1
1448711447434813,2,4,-15,-6,-4,-3,-1,-1
1448711447434813,3,9,2,1,2,-1,2,1
1448711447455827,-5,-20,-3,-4,-3,-1,1,-2
1448711447455827,-2,5,8,3,1,-2,-3,-2
1448711447457328,-3,-24,2,3,1,-2,0,-1
1448711447457328,-5,-6,-26,-5,-1,0,-1,-2
1448711447469837,-4,7,-1,-4,1,0,0,-3
1448711447469837,-4,-11,-4,-4,-3,-1,-5,-2
1448711447476842,3,12,3,2,-1,-1,1,1
1448711447476842,5,-1,16,12,-3,0,1,1
1448711447493353,-3,-16,-8,-11,-4,-2,-4,-2
1448711447493353,-3,6,-1,3,5,-2,0,-1
1448711447494854,0,10,15,-2,1,1,-1,2
1448711447494854,1,-10,-6,-3,2,-3,-3,-2
1448711447515868,6,10,-27,-7,-7,-3,-1,3
1448711447515868,-2,1,11,-1,-3,0,-2,-1
1448711447517370,-4,-2,-9,-3,-1,-1,0,-1
1448711447517370,-3,-6,18,2,0,1,0,0
1448711447529879,-4,-1,5,1,-1,-2,1,-3
1448711447529879,1,-1,11,1,-1,0,-1,1
1448711447544390,1,5,-6,-2,-2,-3,-1,-1
1448711447544390,0,0,-14,-5,-3,2,0,-1
1448711447553396,-2,2,6,1,2,1,2,1
1448711447553396,-3,-1,2,-2,-2,1,3,1
1448711447554897,0,7,3,5,0,0,-5,-3
1448711447554897,-5,3,8,-5,-2,-4,-2,-3
1448711447575912,-3,-9,-5,1,-1,-1,-3,-4
1448711447575912,3,1,-18,0,-1,-1,-2,0
1448711447577414,4,8,7,-1,-1,0,3,3
1448711447577414,-4,-16,-4,-1,2,1,-1,-2
1448711447589921,-1,-4,13,4,1,-3,-2,-1
1448711447589921,-5,-7,-23,-3,-4,-4,-3,-2
1448711447596927,0,-4,-17,-5,1,0,2,-1
1448711447596927,-3,1,-14,-6,0,0,-2,-2
1448711447613439,1,7,12,3,-1,-2,-1,2
1448711447613439,-3,-6,10,3,0,2,-1,-1
1448711447614939,0,9,1,-1,1,0,-1,0
1448711447614939,4,3,-12,0,-1,0,1,2
1448711447635955,1,-6,-3,3,2,1,-1,-4
1448711447635955,1,2,-6,-6,-3,-5,0,-2
1448711447637456,-1,1,22,3,-1,-1,-1,-1
1448711447637456,-4,0,14,-2,-2,-2,0,-1
1448711447649965,-6,2,-24,1,0,0,-1,0
1448711447649965,0,-7,-2,2,1,2,0,-1
1448711447656971,-1,-6,-3,-1,-4,-2,-2,-3
1448711447656971,0,-1,-1,1,1,-1,-2,-1
1448711447673481,3,7,5,-3,-2,1,2,1
1448711447673481,-2,3,19,2,0,1,1,-1
1448711447674983,0,-9,-27,-6,-2,1,-1,1
1448711447674983,-3,6,44,10,-4,-1,-1,-1
1448711447695495,2,-2,-40,-7,-4,-3,-2,-1
1448711447695495,-10,6,-1,-5,0,-3,-3,-3
1448711447697497,-1,-7,8,2,-2,-1,0,-1
1448711447697497,0,9,-5,0,3,-1,0,-1
1448711447710006,-1,12,22,5,0,0,1,1
1448711447710006,3,0,-17,-9,-3,-4,0,0
1448711447717010,-4,2,-1,-1,-1,-1,-2,-3
1448711447717010,3,4,-8,-2,0,1,0,1
1448711447733022,2,-2,25,2,-1,-1,0,0
1448711447733022,5,7,3,5,4,0,-2,1
1448711447735023,-6,-6,-40,-7,-4,-2,-2,-3
1448711447735023,-3,-20,-11,-11,-6,-5,-4,-4
1448711447755538,-5,-4,-25,-3,1,0,-1,-3
1448711447755538,-1,-8,9,2,-2,-1,-2,-2
1448711447757539,2,4,31,8,1,2,0,-1
1448711447757539,-4,-1,-30,1,1,-1,0,-2
1448711447770549,1,-2,9,-5,-5,-1,-2,0
1448711447770549,3,0,-10,2,4,0,-2,-1
1448711447778555,-3,-9,-2,-4,0,-2,-2,0
1448711447778555,-2,4,3,0,0,0,0,0
1448711447793065,-2,-1,13,3,2,0,-2,-2
1448711447793065,-4,-7,9,-6,-4,-2,-1,-1
1448711447795066,2,7,28,7,-1,-1,-1,0
1448711447795066,3,2,-4,2,0,2,1,-1
1448711447816081,-4,-16,-63,-11,-3,-3,-2,-1
1448711447816081,1,3,17,2,1,0,0,0
1448711447817582,-2,2,-13,-4,-1,-3,-1,0
1448711447817582,3,15,41,4,-2,1,0,1
1448711447829590,-2,-22,1,2,1,-1,-1,-2
1448711447829590,-5,-6,-34,-3,-1,0,-1,-2
1448711447838597,5,9,29,5,1,0,-2,-2
1448711447838597,-3,-12,-55,-10,-5,-3,-1,-1
1448711447853107,-1,14,25,-2,-1,-2,-6,-1
1448711447853107,-2,-12,11,-6,-3,-3,0,-2
1448711447854608,-2,-4,-21,-3,0,0,0,-5
1448711447854608,-2,5,21,3,-1,-1,0,0
1448711447875624,2,6,7,6,1,5,9,1
1448711447875624,-2,-8,3,-5,-4,-3,-3,0
1448711447877624,-1,-4,-6,-2,-1,-1,-1,0
1448711447877624,1,-3,-16,-2,2,-1,-1,0
1448711447889633,-2,-2,5,4,0,1,-4,-1
1448711447889633,-4,-6,-16,1,0,-1,-4,-1
1448711447898639,-2,10,12,-2,-1,-1,-1,-1
1448711447898639,-10,-35,6,-6,-5,-5,-6,-6
1448711447913149,-1,3,-14,-4,-2,1,0,1
1448711447913149,-2,-3,-2,2,-1,1,0,-4
1448711447914650,-3,-4,-8,-5,-2,0,0,1
1448711447914650,3,11,-4,-3,-1,1,1,-1
1448711447935665,3,20,34,5,-1,-3,2,0
1448711447935665,1,4,-4,-5,-2,2,0,0
1448711447937667,-1,-5,-25,3,3,2,1,-1
1448711447937667,5,16,60,7,2,0,0,-1
1448711447949175,-7,-15,-63,-12,-2,1,-2,-4
1448711447949175,3,10,24,2,-1,-1,-1,1
1448711447958182,-5,-4,13,-2,-2,-3,0,-2
1448711447958182,-1,-5,-39,-3,0,0,0,-1
1448711447973192,-2,-15,15,3,0,-2,-3,-2
1448711447973192,1,10,8,-2,-2,-1,-3,1
1448711447974693,0,0,-4,-2,-3,-1,-1,-1
1448711447974693,-1,1,9,-1,-2,1,-1,2
1448711447995707,2,-1,1,0,-4,-3,0,0
1448711447995707,-5,-3,-9,1,2,2,1,-1
1448711447997209,-2,-16,-1,-2,-1,-2,-1,0
1448711447997209,1,3,-17,-2,0,-3,-1,1
1448711448009219,-2,3,-1,-7,-7,-1,-2,-2
1448711448009219,7,13,2,4,3,2,0,0
1448711448018224,0,6,11,4,1,-1,-1,-2
1448711448018224,-2,-7,-15,2,5,2,0,0
1448711448033234,5,7,31,2,1,0,0,1
1448711448033234,5,-7,-34,-5,-3,-1,-2,-3
1448711448034736,-11,-7,-36,-14,-5,-1,-2,-4
1448711448034736,-6,-1,13,-2,-8,-3,-3,-2
1448711448055763,-3,1,1,2,3,-3,-3,-2
1448711448055763,-1,6,13,-1,1,0,1,1
1448711448057252,5,-1,7,7,6,3,1,1
1448711448057252,-8,-9,-21,-5,-2,0,-4,-3
1448711448069262,1,12,4,-2,-1,-3,-4,0
1448711448069262,0,-38,-8,-2,-5,-4,-1,-3
1448711448078268,2,22,-4,-4,-4,-2,1,1
1448711448078268,5,0,7,3,2,2,0,2
1448711448093278,-6,-7,-3,-1,-1,-1,-4,-2
1448711448093278,2,15,2,4,0,1,-3,2
1448711448094779,-10,-13,-1,-1,-5,-2,-3,-5
1448711448094779,1,0,0,-12,-3,-2,0,-3
1448711448115811,1,-4,-7,-7,-3,-1,2,-2
1448711448115811,1,0,3,-2,-2,0,1,0
1448711448117293,1,0,0,8,6,2,0,-2
1448711448117293,5,8,4,5,5,2,-1,2
1448711448129302,-4,-12,-18,-9,1,-1,0,-3
1448711448129302,-7,-7,7,-3,-4,-2,0,-1
1448711448138308,-2,-6,7,-1,-6,-3,-3,-1
1448711448138308,-3,-2,6,-4,-2,-4,-3,-4
1448711448153319,2,8,5,1,-2,-1,0,0
1448711448153319,1,16,18,0,3,2,1,1
1448711448154820,-3,-32,-2,1,0,1,2,2
1448711448154820,0,-11,-23,-8,-3,-4,2,-2
1448711448175835,-4,4,14,1,-3,-3,-4,-1
1448711448175835,-4,5,-9,-1,-3,-1,-2,-3
1448711448177336,2,4,7,-6,-4,1,-1,2
1448711448177336,2,-7,3,0,-1,5,10,2
1448711448189344,1,2,-3,-1,0,-2,0,1
1448711448189344,-4,-2,11,4,-2,-5,-12,-7
1448711448198351,-5,0,-9,-7,-5,-10,-25,-17
1448711448198351,-4,-1,-1,6,-1,-1,-8,-2
1448711448213361,-1,-4,-4,1,3,1,4,0
1448711448213361,0,-1,-2,2,-2,2,9,5
1448711448214863,6,5,-8,-7,0,1,6,5
1448711448214863,-4,-2,-8,-1,0,-1,0,-2
1448711448235877,2,-1,4,6,5,5,2,2
1448711448235877,-8,-11,-8,-11,-3,-2,-1,-1
1448711448237378,2,6,-2,7,-1,-2,3,0
1448711448237378,5,10,27,3,-4,-2,-2,-1
1448711448258393,-11,-36,-48,-10,-3,-3,-2,-4
1448711448258393,0,2,0,6,3,-2,-2,-1
1448711448259894,3,0,13,1,3,2,3,1
1448711448259894,-3,15,-9,5,2,-3,-3,-3
1448711448273404,4,15,12,0,-6,-2,-4,-1
1448711448273404,1,-4,-30,-12,-2,-1,-1,-2
1448711448274905,-6,-26,2,-4,-4,-2,3,-1
1448711448274905,-5,-10,-18,-5,-2,-3,-8,-2
1448711448295920,-1,4,13,0,-4,-2,-3,0
1448711448295920,1,4,7,3,-2,-2,-2,0
1448711448297421,3,7,-10,-3,2,0,2,3
1448711448297421,4,2,7,4,1,1,6,1
1448711448318436,-2,-5,-4,-6,-1,-3,-6,-3
1448711448318436,2,-4,-5,2,1,1,2,3
1448711448319937,1,6,21,6,0,-3,-2,1
1448711448319937,4,-7,-42,-8,-1,-1,0,1
1448711448332445,5,25,42,12,4,1,3,1
1448711448332445,-2,-25,-15,-6,-3,-3,-2,-4
1448711448339450,0,12,26,-5,-1,1,-1,1
1448711448339450,-5,-29,-40,-12,-7,-5,-2,-3
1448711448355962,7,23,-7,24,9,6,7,5
1448711448355962,-8,-37,-34,-17,-7,-3,-4,-4
1448711448357463,-10,-4,23,-23,-11,-2,2,6
1448711448357463,-2,-3,10,4,1,0,-15,-24
1448711448378478,-1,1,40,5,0,3,2,-2
1448711448378478,11,42,17,23,10,4,-4,-6
1448711448379979,2,-5,-60,1,2,0,6,11
1448711448379979,-7,-8,15,-9,-9,-8,-3,-2
1448711448393488,-2,-8,-14,-4,-2,-4,-3,-8
1448711448393488,-2,3,2,3,0,1,5,1
1448711448394990,2,6,2,3,2,2,0,2
1448711448394990,4,19,33,6,0,3,2,8
1448711448415504,-8,-17,-18,-12,-5,-3,-1,-1
1448711448415504,-2,3,7,0,2,-1,2,4
1448711448417506,1,3,-7,3,4,1,-3,-4
1448711448417506,3,-2,2,9,4,4,3,3
1448711448438020,-5,-10,-14,-16,-3,-5,-5,-3
1448711448438020,-8,-31,-27,3,8,2,4,1
1448711448440021,2,20,11,6,2,-1,1,-5
1448711448440021,-1,11,6,-6,-4,-2,0,1
1448711448452531,-2,-7,-5,-6,-10,-6,-3,1
1448711448452531,-1,5,12,-3,-4,1,-3,-4
1448711448459535,-1,-16,-10,0,-1,-1,-4,-4
1448711448459535,-3,-9,7,-2,-2,0,2,3
1448711448475546,-3,11,-6,-5,-2,0,-2,-1
1448711448475546,0,6,3,-2,-5,-4,-2,-2
1448711448477548,-4,-10,0,-1,-1,-2,-2,-6
1448711448477548,-7,0,-3,1,0,1,-1,-1
1448711448498063,4,-1,-13,-2,2,1,1,3
1448711448498063,0,9,14,3,0,-1,0,-4
1448711448500064,1,-2,-1,-5,-6,-2,-4,-4
1448711448500064,5,3,13,1,2,-1,-1,0
1448711448512573,2,-2,-27,2,2,-1,-2,-1
1448711448512573,-6,-9,18,-6,-4,-2,1,2
1448711448519578,-2,8,-10,7,2,0,0,-1
1448711448519578,-15,-29,-39,-13,-4,-5,-3,-5
1448711448535589,2,6,15,2,-1,1,-1,-1
1448711448535589,1,12,-11,1,1,1,0,1
1448711448537590,-2,-25,-12,0,-3,-6,-4,-4
1448711448537590,5,17,32,1,4,1,1,3
1448711448558105,-6,-25,-30,-7,-4,2,0,-3
1448711448558105,2,6,18,2,-1,-1,-3,0
1448711448560107,2,18,-19,-4,-1,-2,0,-1
1448711448560107,3,12,9,2,-1,4,1,4
1448711448572615,-1,-5,18,4,1,-7,-2,0
1448711448572615,3,19,-1,-3,-3,-3,-2,-1
1448711448579620,-10,-21,-8,2,0,1,-1,-3
1448711448579620,-3,-5,-9,-1,-1,0,1,-1
1448711448595632,2,4,16,-2,-1,2,1,-1
1448711448595632,3,3,-1,2,-2,0,1,2
1448711448597634,0,-1,3,-10,-4,-2,-4,-2
1448711448597634,7,7,7,2,1,2,0,2
1448711448618148,-1,-16,17,10,1,2,4,-4
1448711448618148,-3,-3,11,-7,-3,-3,-9,-6
1448711448620149,-10,-4,-51,-13,-2,0,-2,-2
1448711448620149,-15,5,-18,9,4,0,-1,-1
1448711448633159,5,13,25,-7,0,2,1,2
1448711448633159,-10,-24,20,4,-3,-2,-3,-3
1448711448639662,0,-9,13,5,-1,-1,0,1
1448711448639662,2,-11,-5,1,4,0,1,0
1448711448655674,-6,3,-32,-6,-2,-4,-2,-2
1448711448655674,-14,-27,15,-6,-1,1,1,-1
1448711448657175,14,21,59,7,0,2,-3,1
1448711448657175,-2,-29,-62,-22,-9,-7,-4,-4
1448711448678190,-5,2,-1,5,-1,-3,-3,0
1448711448678190,5,4,-28,-1,-1,0,1,1
1448711448679691,-2,0,0,3,1,3,3,1
1448711448679691,10,12,35,12,4,2,-2,-2
1448711448692700,4,6,1,-3,-2,-1,-2,0
1448711448692700,-1,-13,-22,-3,-2,-2,3,-2
1448711448699204,-6,-2,-8,-2,0,-3,-5,-3
1448711448699204,8,27,34,2,-3,1,2,2
1448711448715716,-8,-25,-5,-18,-7,-3,-6,-4
1448711448715716,6,19,24,9,2,0,-1,1
1448711448717218,-6,-21,-15,-1,-2,-4,1,-1
1448711448717218,3,18,14,-3,1,1,-1,1
1448711448738233,9,-27,-68,-6,1,1,4,3
1448711448738233,-11,5,-4,-9,-8,-3,-6,-4
1448711448739734,-2,-7,4,5,1,-2,-2,-2
1448711448739734,1,-6,1,-2,-4,-4,-3,-1
1448711448751742,6,26,23,9,0,2,6,5
1448711448751742,-9,-4,-8,3,5,2,3,-1
1448711448760748,3,8,-5,-4,1,-1,-1,0
1448711448760748,-11,-12,-4,4,2,1,7,0
1448711448774759,0,17,23,6,1,-4,-5,-7
1448711448774759,7,6,-35,2,-1,-6,-16,-2
1448711448783265,-12,-22,3,-19,-9,-6,-7,-7
1448711448783265,8,0,19,-5,-8,-3,-7,3
1448711448798276,-5,-11,-9,1,2,4,9,4
1448711448798276,-4,10,30,7,-3,1,4,-2
1448711448799776,11,28,-17,14,14,5,3,4
1448711448799776,1,-22,-15,1,1,1,6,3
1448711448811785,-6,1,-11,-3,1,-2,-6,-3
1448711448811785,5,-2,29,-5,-5,0,3,1
1448711448820792,3,7,-26,0,4,0,-1,0
1448711448820792,-2,-6,-38,-1,-4,-2,-1,-2
1448711448835802,-5,-8,50,-5,-3,-3,-6,-2
1448711448835802,2,-2,-39,-2,-1,0,-5,0
1448711448837303,0,9,27,-4,-6,0,2,2
1448711448837303,-8,16,12,1,1,-2,-4,-4
1448711448858819,10,5,-25,12,7,6,12,9
1448711448858819,-14,-46,-25,-14,-1,0,2,-5
1448711448860321,-10,-9,16,-3,-8,-11,-18,-14
1448711448860321,0,3,-10,4,-1,-5,-4,0
1448711448871827,0,3,14,0,-4,1,-3,-3
1448711448871827,2,4,6,-1,1,5,22,10
1448711448880834,3,6,-13,1,4,3,-1,1
1448711448880834,-1,2,22,-5,-3,-7,-21,-10
1448711448895844,-3,6,16,10,8,-2,0,-2
1448711448895844,-6,-9,-62,-17,-6,-3,-6,-4
1448711448897345,-3,-10,-32,-14,-8,2,3,-5
1448711448897345,-9,-9,-7,11,-1,0,5,0
1448711448918360,1,24,76,7,3,1,-2,0
1448711448918360,2,22,23,10,6,1,6,2
1448711448919862,-5,-20,-41,-19,-8,-3,4,1
1448711448919862,5,-11,2,-3,2,6,13,11
1448711448931870,2,-4,-33,-1,-2,-3,2,0
1448711448931870,-5,22,49,2,-3,-12,-31,-13
1448711448940876,6,9,28,12,0,-2,-4,1
1448711448940876,-2,-6,-12,-9,-2,1,-4,-4
1448711448955887,-7,-7,-3,-4,-7,-5,3,1
1448711448955887,15,2,11,4,5,1,6,5
1448711448957388,-4,-24,-19,-11,-3,-3,-5,-3
1448711448957388,-3,15,9,1,4,2,13,4
1448711448978402,4,19,27,2,-1,3,-6,0
1448711448978402,-2,-29,-61,-12,-10,-6,-13,-6
1448711448979904,2,14,72,7,3,-2,0,-1
1448711448979904,-5,-11,-82,0,8,0,-2,-2
1448711448991912,-3,-8,3,3,-9,-7,-5,-6
1448711448991912,9,11,26,3,16,12,18,9
1448711449000918,3,22,-2,-6,-3,3,4,4
1448711449000918,3,5,58,-6,-7,-13,-15,-6
1448711449015929,3,18,2,6,2,-3,-3,-1
1448711449015929,1,-5,-9,1,-5,1,14,6
1448711449017430,-2,5,-24,3,5,5,14,4
1448711449017430,0,6,16,1,-2,1,-13,-12
1448711449038946,-14,-16,-26,-11,-5,-6,-22,-13
1448711449038946,-1,16,40,0,-2,-5,-17,-7
1448711449040447,-7,-3,28,7,-1,-2,3,0
1448711449040447,-4,-5,2,-5,-2,1,3,1
1448711449051956,-1,-2,20,14,5,6,12,8
1448711449051956,-13,-37,-98,-23,-10,-4,1,-6
1448711449061462,0,20,63,1,-5,-2,-3,1
1448711449061462,7,30,83,29,10,6,14,8
1448711449075973,-11,-57,-113,-57,-13,-3,0,-6
1448711449075973,5,44,125,29,15,1,-14,0
1448711449077488,6,-32,-87,-16,-5,-5,-6,-1
1448711449077488,-2,-29,40,4,-3,0,2,0
1448711449098489,-3,-6,-39,-10,-4,0,7,0
1448711449098489,-3,-7,4,-11,-6,-1,6,-1
1448711449099989,-2,-17,-19,7,5,1,-2,1
1448711449099989,14,32,16,12,12,9,13,8
1448711449112497,-8,-6,-5,10,1,-3,-13,-6
1448711449112497,3,-10,-37,-2,-9,-11,-24,-8
1448711449121004,11,22,54,1,-3,-9,-19,-7
1448711449121004,-7,-12,-35,-2,-4,0,8,5
1448711449136014,-14,-14,-58,-7,5,3,10,-3
1448711449136014,-1,2,-18,3,4,5,11,2
1448711449137515,-1,12,-20,-10,-9,-4,-3,-5
1448711449137515,10,9,15,-7,-5,1,-2,1
1448711449158029,14,-4,67,23,3,-3,2,8
1448711449158029,4,9,3,3,11,9,21,12
1448711449160031,-4,-3,-47,-5,-2,-2,-9,-4
1448711449160031,-4,-12,38,4,-4,-10,-17,-12
1448711449180546,8,6,-50,-21,0,-3,-12,-1
1448711449180546,-1,-8,25,0,3,5,15,4
1448711449182547,-19,11,27,9,5,7,17,6
1448711449182547,-5,18,-5,-11,-7,-3,0,-2
1448711449195557,13,38,24,9,2,7,5,9
1448711449195557,-13,-31,8,3,-7,-14,-26,-13
1448711449197558,-9,8,17,1,2,1,-2,-3
1448711449197558,-2,-1,-36,-6,2,13,47,19
1448711449218072,4,3,33,5,-7,-6,-25,-14
1448711449218072,4,4,-53,-14,-6,-11,-32,-13
1448711449220073,1,-11,37,11,-5,-12,-35,-18
1448711449220073,1,-17,-54,-32,-14,-11,-38,-24
1448711449240588,6,-9,8,14,11,9,23,7
1448711449240588,-1,2,7,9,2,2,10,6
1448711449242589,11,42,14,24,-11,2,19,11
1448711449242589,-13,-28,-41,-26,10,2,6,6
1448711449255600,-12,4,2,-10,4,7,23,8
1448711449255600,3,7,-8,29,1,0,1,-1
1448711449257601,-4,-35,-12,-15,8,1,9,5
1448711449257601,14,18,1,2,-7,4,31,18
1448711449285632,7,20,7,-13,-13,-5,-17,3
1448711449285632,7,3,14,-2,-4,-6,-12,-9
1448711449292137,8,-14,-1,10,1,-8,-13,-8
1448711449292137,-8,-19,-25,1,5,-2,10,19
1448711449300649,-6,-32,-1,-7,0,5,35,10
1448711449300649,-3,6,15,-12,-9,10,-8,-24
1448711449302634,-26,-6,-1,-12,-11,-29,-79,-53
1448711449302634,-11,-7,6,13,-15,-25,-79,-50
1448711449315643,5,5,8,-26,-3,-2,29,20
1448711449315643,7,-8,6,13,-11,4,28,29
1448711449317644,21,7,-32,-9,12,19,36,23
1448711449317644,-18,-40,16,23,3,-6,-18,-16
1448711449338159,18,29,-14,-40,-2,3,-17,-12
1448711449338159,5,-2,13,14,7,6,20,12
1448711449340159,-8,-45,-58,-25,0,8,31,21
1448711449340159,4,18,21,22,5,8,39,29
1448711449360675,-1,-31,-4,28,13,12,18,13
1448711449360675,-9,11,20,-7,-2,-2,34,16
1448711449362176,12,30,-5,7,3,-4,-46,-12
1448711449362176,-21,-53,-21,-30,-16,-20,-68,-55
1448711449374684,6,-14,-6,-6,-6,-15,-24,-15
1448711449374684,-15,7,-7,11,5,5,-2,-6
1448711449383189,3,18,62,0,-9,-2,10,-6
1448711449383189,20,32,-37,10,6,2,-14,-6
1448711449398200,-29,-9,18,6,-19,-7,-15,-12
1448711449398200,-3,16,-6,-17,9,-2,2,10
1448711449399702,11,-3,-5,5,1,13,65,40
1448711449399702,2,43,31,-19,-25,-7,-30,-16
1448711449420718,-5,-43,-10,25,18,4,-10,-9
1448711449420718,40,52,27,50,21,10,16,18
1448711449422218,-26,-98,-76,-70,-10,-2,22,5
1448711449422218,-16,-33,28,6,-3,-4,-2,-9
1448711449435227,14,42,7,-4,-7,-11,-28,-5
1448711449435227,-8,-11,-39,-24,6,13,42,16
1448711449441730,-11,-3,28,1,2,9,30,20
1448711449441730,7,7,-10,-4,2,-22,-48,-25
1448711449458242,-32,-28,7,14,-9,-20,-65,-51
1448711449458242,-21,13,8,-4,-4,-2,2,-3
1448711449459743,4,3,10,21,-5,-7,-8,-7
1448711449459743,34,27,-39,-45,-12,6,35,27
1448711449480758,-22,34,30,13,3,-3,-7,-13
1448711449480758,34,12,33,6,-12,-6,-12,3
1448711449482259,3,9,-18,8,26,18,68,46
1448711449482259,-9,-4,41,-1,-1,8,-3,-2
1448711449495268,2,11,-25,3,-9,-13,-50,-30
1448711449495268,-18,-64,16,-16,-1,-8,-18,-18
1448711449501773,-9,-28,30,36,3,7,7,-5
1448711449501773,42,32,-61,-30,6,10,46,39
1448711449518285,9,8,12,4,8,17,79,64
1448711449518285,-14,21,-54,-68,-27,-3,0,-5
1448711449519786,-13,-30,26,61,10,-26,-122,-83
1448711449519786,-21,-31,51,36,-3,-14,-39,-35
1448711449540802,16,38,-22,-11,-5,18,61,38
1448711449540802,21,7,36,18,4,3,13,16
1448711449542319,-25,15,-15,-58,-21,-21,-52,-27
1448711449542319,1,29,-39,7,15,5,21,21
1448711449555312,8,24,-4,4,8,14,34,22
1448711449555312,-16,-26,5,1,-9,-8,13,-19
1448711449561817,-25,-1,5,-2,-7,-5,-43,-22
1448711449561817,-32,-20,27,17,-10,-8,-41,-45
1448711449578349,12,-13,-11,-8,-6,1,27,19
1448711449578349,7,-82,18,15,15,2,-5,6
1448711449579828,17,64,-53,-11,6,7,50,34
1448711449579828,29,11,29,-15,-21,0,-9,-1
1448711449600844,-27,-30,-22,-4,12,-4,-9,-6
1448711449600844,0,35,18,15,-2,-2,-33,-28
1448711449602345,-3,-34,-23,-18,3,-6,-15,-17
1448711449602345,13,-37,-3,15,21,16,35,36
1448711449614353,17,10,48,17,-5,18,73,58
1448711449614353,-18,-26,-66,-43,-14,-12,-3,-4
1448711449623359,-14,0,20,-19,-35,-20,-41,-39
1448711449623359,3,24,-8,-3,0,-1,-4,-10
1448711449638370,-37,-17,11,-29,-30,-43,-128,-119
1448711449638370,-18,9,3,27,24,-5,-16,-2
1448711449639871,57,-3,0,52,22,50,127,105
1448711449639871,-70,-36,22,-10,-31,-13,0,-4
1448711449660887,-52,-37,-52,-28,7,-22,-67,-76
1448711449660887,15,-14,-16,4,-7,-14,-51,-30
1448711449662388,28,62,70,27,-9,1,14,19
1448711449662388,-11,6,-4,12,35,48,127,110
1448711449674897,40,45,-19,9,17,15,20,10
1448711449674897,-8,-13,-86,-65,-14,-47,-107,-63
1448711449681900,66,81,19,-44,-9,-2,9,30
1448711449681900,-41,-56,-34,-11,-9,-10,-19,-16
1448711449698413,-48,-14,45,16,-11,5,10,-31
1448711449698413,-52,14,37,36,0,29,68,39
1448711449699915,-49,-28,-31,-19,17,-27,-100,-80
1448711449699915,60,-15,38,30,-8,-1,14,16
1448711449720928,87,90,-23,0,25,25,83,86
1448711449720928,-3,26,14,-34,-33,-8,37,72
1448711449722430,18,-5,-6,22,-1,1,12,5
1448711449722430,-47,-79,-58,-38,9,-20,-123,-122
1448711449734437,-71,-78,33,-13,-31,-40,-113,-104
1448711449734437,27,26,48,80,16,21,57,36
1448711449743444,-19,-21,-15,21,18,43,106,90
1448711449743444,25,91,-58,-47,-3,-9,-9,-22
1448711449759956,18,-39,11,75,8,-7,-32,4
1448711449759956,18,-2,10,-31,1,3,36,13
1448711449761458,-14,-12,-51,-15,-9,-20,-84,-65
1448711449761458,25,0,18,43,-1,8,47,55
1448711449780970,-26,-7,-68,-101,-21,-1,35,30
1448711449780970,-15,20,-2,38,7,9,0,-6
1448711449782472,21,25,58,45,24,27,73,41
1448711449782472,-55,-55,27,-29,-60,-43,-88,-79
1448711449794480,32,-10,47,-26,-40,-28,-19,5
1448711449794480,2,-1,-83,-38,27,8,-31,-11
1448711449803487,-27,29,24,12,-14,-10,-45,-65
1448711449803487,1,75,60,49,5,4,18,33
1448711449818497,32,40,-4,-10,33,32,102,67
1448711449818497,27,2,-116,-34,23,2,-30,-12
1448711449819998,-26,-2,58,-6,-48,-27,-32,-25
1448711449819998,54,79,-52,-29,65,47,86,70
1448711449841013,-21,18,20,50,-4,-6,16,13
1448711449841013,31,46,90,-29,-6,19,34,15
1448711449842514,-10,-2,41,38,-30,-31,-21,-10
1448711449842514,-10,-46,-80,-65,59,-9,-55,-29
1448711449854522,16,4,15,56,35,35,84,71
1448711449854522,-7,-95,34,32,-9,-10,-71,-75
1448711449863530,-39,-33,-14,-52,-10,-15,-42,-15
1448711449863530,-5,19,50,10,-33,-9,9,-2
1448711449878540,18,-18,-7,11,-15,7,42,52
1448711449878540,-67,-35,-17,-49,-33,-6,0,-21
1448711449880041,1,37,-51,-59,24,-15,-69,-70
1448711449880041,15,-15,-40,80,21,23,43,32
1448711449900555,27,25,7,-94,-28,12,54,29
1448711449900555,-12,7,-69,-43,14,-26,-2,15
1448711449902556,13,-24,40,65,15,14,-21,1
1448711449902556,-18,-13,108,85,-9,4,9,9
1448711449914566,35,-6,-94,-48,24,-3,-14,-19
1448711449914566,9,13,61,57,-8,7,-18,-18
1448711449923571,-5,-11,36,-39,-27,8,26,1
1448711449923571,-15,4,-40,-47,21,21,83,39
1448711449938081,-34,-72,49,115,1,-28,-101,-65
1448711449938081,14,-8,-4,-11,-49,-78,-39,-21
1448711449940083,-7,-42,-113,-33,7,-24,-36,-30
1448711449940083,48,64,70,1,-34,67,106,90
1448711449960597,-54,-18,-16,-60,2,-6,-35,-27
1448711449960597,-17,32,-6,21,53,23,-71,-31
1448711449962599,-7,-29,28,37,3,0,33,19
1448711449962599,13,-55,-17,-42,-28,-36,12,-15
1448711449974607,-2,-46,12,-11,-3,4,-12,-26
1448711449974607,43,-20,13,24,-5,6,20,19
1448711449983614,14,-18,33,-7,-14,15,47,40
1448711449983614,-47,-50,-37,-18,11,-27,-81,-53
1448711449997624,19,-17,91,108,0,23,53,33
1448711449997624,-7,-49,-57,-63,21,1,48,26
1448711450012134,-5,42,105,14,-72,-45,-53,-62
1448711450012134,5,-33,-92,-49,23,-25,-42,-27
1448711450020640,11,31,-51,13,42,12,22,0
1448711450020640,4,64,62,54,2,21,-7,-10
1448711450022641,16,74,6,14,1,21,87,96
1448711450022641,-41,30,-64,-59,21,-12,-48,-28
1448711450034650,-18,-49,28,17,-16,-25,-63,-41
1448711450034650,14,48,4,-35,-6,36,100,64
1448711450043657,-17,-15,-60,-65,10,-14,-62,-28
1448711450043657,9,65,127,114,-47,-15,-11,4
1448711450057667,-14,24,-116,-111,-15,11,51,41
1448711450057667,-13,77,-40,-72,-20,-11,27,16
1448711450064672,-6,47,-8,-6,50,12,-33,-42
1448711450064672,15,40,-3,28,-12,-13,21,38
1448711450080682,12,76,60,37,-31,-16,-31,-19
1448711450080682,-9,17,34,19,-5,3,-19,-35
1448711450082183,-9,-5,8,-1,-2,19,37,19
1448711450082183,25,-32,-17,-14,26,18,72,31
1448711450094693,-51,-61,-16,6,22,-25,-126,-99
1448711450094693,16,-66,61,63,-14,-42,-81,-46
1448711450103199,46,-66,7,40,33,28,64,49
1448711450103199,20,-61,-79,-71,-11,29,45,10
1448711450117709,11,36,127,39,-42,0,39,33
1448711450117709,25,-45,-69,6,16,27,71,58
1448711450124215,-18,-44,-111,-81,24,-1,-11,1
1448711450124215,-19,-35,-5,-43,-24,-22,-98,-62
1448711450140725,-25,-21,4,67,-3,-18,-20,-23
1448711450140725,-12,26,40,-9,43,0,-64,-38
1448711450142226,6,-48,-39,-49,15,7,38,19
1448711450142226,-5,23,37,-11,-30,2,32,12
1448711450163241,32,-5,-8,-73,-6,15,48,53
1448711450163241,11,12,55,48,18,12,51,24
1448711450164742,-1,-22,-58,39,10,14,32,29
1448711450164742,-10,8,74,-24,-66,-51,-93,-48
1448711450177751,17,-24,-52,-29,-6,-36,-109,-91
1448711450177751,-13,-9,-19,-34,-25,21,100,78
1448711450184255,84,33,29,-28,-5,39,56,39
1448711450184255,-84,-9,-17,11,49,-28,-109,-111
1448711450200767,-32,2,-26,24,-6,-21,-17,-17
1448711450200767,-17,-29,4,-14,-43,-21,45,44
1448711450202769,-26,-11,-21,-40,24,0,12,14
1448711450202769,45,33,83,127,25,26,-2,22
1448711450223283,33,-14,-117,-72,35,22,41,38
1448711450223283,-6,5,51,52,-25,-16,-62,-48
1448711450224784,27,35,52,75,4,-10,-23,-13
1448711450224784,1,6,-79,-50,40,37,92,76
1448711450237793,21,74,60,-15,-24,21,70,69
1448711450237793,-60,-45,12,3,-6,-42,-103,-101
1448711450244298,48,15,46,42,0,10,43,27
1448711450244298,-52,1,-4,-13,-21,-4,49,29
1448711450260809,-34,9,-56,41,19,-24,-72,-69
1448711450260809,-7,3,-15,-68,9,45,60,48
1448711450262311,19,59,94,12,-37,-33,-34,-12
1448711450262311,8,-57,-59,-27,5,11,-6,-45
1448711450283326,-5,14,59,-19,-32,9,17,35
1448711450283326,-8,15,-52,-19,44,-13,-60,-51
1448711450284826,-76,-32,26,41,16,-11,-59,-45
1448711450284826,42,31,31,11,-32,13,66,72
1448711450305854,-12,-16,33,70,59,15,-1,-15
1448711450305854,-5,-18,63,50,-36,-18,-47,-47
1448711450307357,37,-13,-98,-58,61,40,56,46
1448711450307357,47,0,8,30,-2,10,49,43
1448711450320852,-36,-44,-28,-52,-7,-25,-84,-85
1448711450320852,-9,4,-17,5,-14,-7,-52,-29
1448711450322353,2,11,12,-21,-56,-7,15,32
1448711450322353,-44,34,12,-4,5,-17,2,-4
1448711450342369,41,-13,-12,-22,-5,-17,-18,4
1448711450342369,20,13,2,-21,-31,6,33,18
1448711450350875,-63,-14,-10,-1,-19,-2,-31,-57
1448711450350875,18,5,-62,-32,16,-22,-78,-41
1448711450356891,45,52,68,40,2,26,71,67
1448711450356891,33,22,-11,26,4,-3,17,28
1448711450365897,-21,5,-33,-79,4,0,1,1
1448711450365897,21,-2,78,96,-11,-5,0,-3
1448711450380908,-25,-24,-110,-106,10,7,5,3
1448711450380908,16,-20,20,90,55,33,39,37
1448711450382409,11,15,49,65,23,-7,8,2
1448711450382409,0,-83,-50,-27,8,-9,-44,-24
1448711450403413,27,-45,20,-5,-26,15,-15,-22
1448711450403413,-34,-37,-32,-67,-37,-8,-21,-24
1448711450404912,-38,-44,-12,-9,-34,-71,-71,-39
1448711450404912,1,30,32,-1,-13,-7,11,36
1448711450416922,-7,31,7,17,-7,-17,36,10
1448711450416922,-15,14,-14,-26,-8,-18,-78,-71
1448711450425926,2,13,-10,11,-21,-7,-25,-12
1448711450425926,1,37,-10,-30,-26,-10,10,-7
1448711450440939,-2,45,58,-38,5,23,29,44
1448711450440939,17,6,-4,76,65,43,60,44
1448711450442451,11,12,3,5,-7,8,4,2
1448711450442451,4,41,-3,2,23,2,-16,-14
1448711450463453,-3,15,-23,26,0,4,23,12
1448711450463453,22,4,6,12,-21,-21,-11,4
1448711450464954,19,20,-22,-6,20,15,5,3
1448711450464954,9,3,0,10,10,20,38,26
1448711450477464,-27,-41,5,-3,-3,10,66,49
1448711450477464,-10,-41,17,-8,-4,-12,-43,-40
1448711450485971,-20,-31,-2,-9,-29,-15,-66,-71
1448711450485971,-48,-72,-13,-21,-11,7,-11,-44
1448711450500980,16,13,20,19,5,-34,21,45
1448711450500980,-10,-27,-27,-35,-24,-45,-59,-50
1448711450502481,18,10,0,7,-7,-15,17,17
1448711450502481,2,27,5,-30,-19,-8,-30,-15
1448711450524009,-14,0,8,10,-15,16,5,-7
1448711450524009,33,19,-8,-17,39,46,86,80
1448711450525499,-9,-1,31,94,42,19,-6,-1
1448711450525499,-5,3,-18,38,33,10,-8,-5
1448711450537006,-3,3,-13,-20,-15,-10,-12,-5
1448711450537006,7,4,-24,-16,-32,-13,-4,4
1448711450546024,-8,-25,6,-36,-13,5,3,-4
1448711450546024,-7,26,21,-6,9,3,14,11
1448711450561035,-20,15,23,58,16,0,-25,-29
1448711450561035,-1,-15,2,-32,-14,5,11,5
1448711450562523,-15,-33,-20,9,4,-2,34,25
1448711450562523,-41,-47,-9,-21,-29,-13,1,8
1448711450583538,11,-36,-14,-15,-2,-3,-49,-41
1448711450583538,-18,-17,18,19,19,11,-13,-22
1448711450585041,31,51,0,-12,-9,-15,2,14
1448711450585041,6,37,-5,-2,-10,-11,-40,-28
1448711450597049,-6,24,-1,-10,-7,-5,18,-1
1448711450597049,1,23,-4,-30,-9,4,27,31
1448711450606054,1,-2,-3,27,9,19,13,8
1448711450606054,9,3,6,-2,2,7,-1,0
1448711450628082,0,-5,8,16,15,4,-17,-9
1448711450628082,12,12,23,-14,3,-2,10,13
1448711450630086,-13,-4,-5,12,3,2,-2,-4
1448711450630086,3,21,-45,-7,-4,-4,-12,-7
1448711450643581,10,-4,-2,-7,-7,-7,-4,-2
1448711450643581,12,-31,-12,-1,-3,4,10,8
1448711450649585,9,-23,30,-7,-6,0,-15,0
1448711450649585,5,-1,19,7,2,-23,3,0
1448711450657090,-28,-37,-13,-2,-1,5,-8,-17
1448711450657090,-23,-40,-10,-7,-9,-2,8,-9
1448711450666098,-14,-55,-13,-9,-3,11,4,-2
1448711450666098,18,-10,7,5,3,-9,-16,-3
1448711450680607,-7,0,-9,-8,-1,-2,-11,-7
1448711450680607,-13,-6,4,7,-9,-25,1,-1
1448711450682608,-11,-19,-17,-23,-18,4,21,-10
1448711450682608,5,-14,3,-1,6,9,-3,-1
1448711450704123,12,17,17,15,18,8,3,5
1448711450704123,9,42,-4,11,11,12,9,14
1448711450705624,5,59,53,-2,0,-8,5,9
1448711450705624,5,15,-37,26,26,8,9,2
1448711450717133,2,18,-16,-5,1,-7,-9,-4
1448711450717133,-8,19,-8,5,-6,-2,-7,0
1448711450726639,-5,10,-15,-22,-15,-7,-10,-3
1448711450726639,-4,-8,15,-10,-10,9,1,-5
1448711450740650,1,-6,6,5,1,-1,-2,-2
1448711450740650,-2,9,-10,1,0,-5,-7,0
1448711450742651,-19,-6,19,-1,-2,-7,-3,-4
1448711450742651,-4,-18,25,5,0,1,-6,1
1448711450763166,6,-6,-10,-6,-6,-1,-1,2
1448711450763166,-8,-26,-26,-10,-5,8,-20,-10
1448711450765167,-1,0,-18,-3,-2,-29,34,4
1448711450765167,7,-6,1,3,2,4,13,1
1448711450777175,0,2,5,3,1,-1,-2,-2
1448711450777175,5,-6,37,2,-3,-1,-8,2
1448711450786181,-4,6,-18,1,-1,11,-12,6
1448711450786181,-2,-6,2,2,3,3,-2,-5
1448711450800692,5,7,4,11,7,-2,-7,2
1448711450800692,-1,-2,-12,0,1,-4,-1,-1
1448711450802693,3,1,1,-7,-1,2,-6,-2
1448711450802693,-2,-3,-16,6,1,-3,4,2
1448711450823207,-5,6,15,7,0,2,-7,-2
1448711450823207,5,12,-1,1,1,-2,7,4
1448711450824709,2,10,0,0,1,1,-4,-2
1448711450824709,-4,-6,-12,-8,-6,-2,-5,-1
1448711450836717,-5,-18,-27,-13,-2,2,-5,-5
1448711450836717,-5,-2,5,0,-6,-12,3,-2
1448711450846224,0,4,3,1,1,7,-4,0
1448711450846224,2,-12,33,3,-4,-7,-8,15
1448711450860735,-5,-1,0,6,1,0,-7,-15
1448711450860735,3,-3,-37,-7,0,3,14,-2
1448711450862235,1,0,8,0,0,-10,-9,-8
1448711450862235,-2,-1,-10,0,-3,3,8,-4
1448711450883250,-2,-31,-15,-18,-12,-3,5,5
1448711450883250,5,0,66,17,10,5,0,4
1448711450884751,0,-26,-22,8,7,7,1,0
1448711450884751,-2,-24,-27,0,0,-1,-2,-2
1448711450896759,2,0,10,-16,-12,-10,-4,2
1448711450896759,-2,15,5,-12,-4,1,-5,0
1448711450905766,6,30,26,20,9,6,3,6
1448711450905766,-10,5,4,-15,-9,-9,-8,-10
1448711450920776,0,12,3,5,0,-1,-5,-5
1448711450920776,-2,3,-30,-3,-1,2,7,2
1448711450922278,-2,8,-14,-7,-4,-4,-4,0
1448711450922278,0,17,6,-1,1,9,1,-3
1448711450943292,0,16,0,6,0,2,-6,-1
1448711450943292,2,-4,21,8,0,-14,-3,-4
1448711450944794,-2,-23,-5,-5,-2,2,7,8
1448711450944794,1,-8,-1,0,0,1,4,-4
1448711450956802,0,3,5,3,1,-4,-2,1
1448711450956802,-7,-7,-37,-7,-5,-6,-3,-4
1448711450965809,-1,6,1,-5,-4,1,0,-5
1448711450965809,-3,9,21,-6,-2,-1,2,-6
1448711450980819,4,10,53,-3,-4,-1,-1,2
1448711450980819,3,-5,-33,-2,-4,2,-6,-4
1448711450982320,-1,-11,-9,-4,1,-3,-5,-1
1448711450982320,-3,-1,19,12,9,2,1,2
1448711451003335,-5,-17,-26,5,6,3,3,-6
1448711451003335,-2,2,16,0,-3,-1,-1,-1
1448711451004836,0,-2,-41,-10,-8,2,-6,-4
1448711451004836,0,12,5,0,-3,-5,1,-1
1448711451016844,5,4,-7,0,2,-3,2,2
1448711451016844,3,1,8,0,2,7,1,5
1448711451025851,-2,-13,-22,-7,-1,-6,-7,-2
1448711451025851,7,-6,13,1,-1,1,4,2
1448711451040861,-1,-3,-15,-5,-5,-9,-5,-1
1448711451040861,-4,1,12,3,1,3,4,0
1448711451042363,-3,3,6,1,-2,2,-8,-2
1448711451042363,-3,-8,-5,-4,-1,-4,4,-1
1448711451063377,2,-2,-17,0,1,0,8,3
1448711451063377,0,7,8,-1,-2,-3,-6,0
1448711451064878,-4,-3,7,-4,-1,2,6,-2
1448711451064878,2,-4,-9,5,6,1,-10,0
1448711451087395,3,1,3,6,2,3,-5,1
1448711451087395,-1,-7,-3,-3,-1,-2,8,-1
1448711451088896,-8,-10,8,-2,-3,-5,-6,-5
1448711451088896,-1,0,18,2,-5,-4,-3,-2
1448711451100904,-3,2,-11,0,0,3,-4,-1
1448711451100904,4,-1,-13,-7,-2,0,-6,0
1448711451102405,3,-1,-7,4,3,-3,3,1
1448711451102405,-12,4,-3,-3,-3,0,-6,-3
1448711451123420,-8,-3,-19,-7,-5,-4,0,-2
1448711451123420,-1,5,7,-4,-3,2,-1,-2
1448711451124921,4,4,13,14,8,2,0,0
1448711451124921,4,-1,17,4,2,-2,5,0
1448711451145936,3,1,-20,3,0,-1,-14,-1
1448711451145936,-2,-17,-38,-11,-8,-11,-7,20
1448711451147437,0,1,-21,-9,-4,1,18,-10
1448711451147437,1,1,-3,-1,-2,1,-13,0
1448711451160946,1,-1,27,1,1,2,30,-8
1448711451160946,3,5,7,4,5,1,-12,-2
1448711451162447,8,2,11,2,-1,-5,5,8
1448711451162447,-2,9,21,1,-1,-2,-5,2
1448711451183462,-3,17,31,4,1,2,-11,-2
1448711451183462,-10,-30,7,-7,-6,-2,1,-9
1448711451184963,1,6,-6,1,0,0,-4,3
1448711451184963,-7,-19,-26,-13,-7,-5,-6,-5
1448711451205979,0,6,42,19,8,17,15,6
1448711451205979,-13,-19,-37,-20,-8,-25,-26,-17
1448711451207480,1,-1,17,2,2,0,1,1
1448711451207480,3,12,20,9,0,0,15,0
1448711451220989,5,7,22,-2,-2,2,-60,12
1448711451220989,1,10,-5,14,7,16,60,30
1448711451222490,-10,-9,-5,-9,-7,-12,-16,-48
1448711451222490,6,-1,-9,-2,0,-3,-9,-5
1448711451243505,1,7,59,7,0,-11,-74,-17
1448711451243505,-18,-15,-38,-11,-5,10,6,-11
1448711451245005,-8,-23,-4,-18,-4,-1,61,29
1448711451245005,8,-2,15,0,1,2,17,10
1448711451266021,9,-7,-11,-4,-1,-1,28,8
1448711451266021,1,29,41,22,8,3,-52,-4
1448711451267522,-4,19,59,8,-4,-6,5,-2
1448711451267522,-8,-25,-109,-28,-13,-7,-8,-10
1448711451280030,-1,-8,-16,-7,0,-3,15,4
1448711451280030,5,35,94,22,11,4,-5,-2
1448711451287035,-8,-18,-81,12,6,6,0,1
1448711451287035,-7,-10,51,-13,-8,-8,-33,-23
1448711451303547,-4,-6,-3,-9,-10,-9,15,-4
1448711451303547,2,3,16,-6,-2,2,13,-5
1448711451305048,11,25,53,13,6,7,-16,9
1448711451305048,2,2,-13,7,7,3,0,7
1448711451326063,-9,-10,-48,-17,-7,-3,14,-6
1448711451326063,5,-4,8,1,0,4,-40,-2
1448711451327564,6,9,27,5,-1,-7,16,13
1448711451327564,-9,-9,-73,-4,0,3,37,-11
1448711451340082,-6,-2,9,-4,1,-9,-16,-19
1448711451340082,10,-19,-4,1,0,3,26,2
1448711451347078,-2,-5,-8,-8,-3,-1,-34,-3
1448711451347078,2,11,31,7,0,-3,-8,2
1448711451363589,-3,-8,-20,2,-3,-1,27,6
1448711451363589,-4,3,-52,-13,-3,-3,-13,-8
1448711451365091,-1,-3,4,3,3,6,-11,-7
1448711451365091,-2,-5,18,-13,-7,-6,11,1
1448711451386105,8,6,12,12,6,1,2,6
1448711451386105,2,-5,-28,6,5,-5,4,-2
1448711451387608,-6,-12,-3,-5,-4,0,-4,-6
1448711451387608,-3,3,-19,-2,2,3,-1,6
1448711451399615,0,-4,6,-7,-4,-2,-17,-1
1448711451399615,0,2,41,-1,-3,-1,12,-3
1448711451408622,-2,5,16,1,-1,0,4,-4
1448711451408622,-2,-13,-20,-15,-5,-2,-3,2
1448711451423632,-10,-5,-5,-5,-3,0,10,-1
1448711451423632,-2,5,18,2,-2,1,12,-2
1448711451425134,5,2,4,-3,-1,-4,-31,-1
1448711451425134,1,10,26,9,3,1,6,1
1448711451445147,2,-2,-15,-4,-1,-1,10,0
1448711451445147,4,2,3,-1,-3,-5,-2,3
1448711451453654,-7,-7,11,2,-1,1,-9,-1
1448711451453654,-15,-27,-67,-18,-3,0,-12,-6
1448711451459658,-5,-4,-5,3,1,-1,7,0
1448711451459658,0,-4,-1,-6,-4,-4,-4,-2
1448711451468664,4,1,-3,-11,-3,0,-2,0
1448711451468664,6,16,38,26,10,1,-7,5
1448711451483175,2,-4,-1,0,2,1,7,-1
1448711451483175,-1,-14,-13,-1,-2,-4,8,-3
1448711451485176,-5,-9,-8,-12,-5,0,-3,-2
1448711451485176,4,6,19,8,2,2,0,1
1448711451505691,1,2,-9,-4,-4,1,6,1
1448711451505691,1,0,-2,-2,-4,-5,-13,-1
1448711451507691,5,3,-18,-5,0,-3,-8,-4
1448711451507691,-3,1,13,4,0,-1,1,-6
1448711451520200,0,-3,8,-5,-2,0,8,2
1448711451520200,-3,-7,-30,-5,0,0,-20,-3
1448711451527205,-4,0,-6,-1,-1,-1,33,0
1448711451527205,5,3,5,-1,-4,-7,-21,1
1448711451543216,-5,1,9,-1,-5,-2,-13,-3
1448711451543216,-4,3,-13,-5,-2,5,16,1
1448711451545218,-3,-2,-15,7,3,0,-17,-2
1448711451545218,3,6,11,7,4,1,18,1
1448711451565732,-4,-4,0,-8,-2,0,-5,-2
1448711451565732,3,2,-1,14,1,-5,-9,-2
1448711451567233,0,1,15,-9,-3,-3,-9,-3
1448711451567233,-1,9,-9,13,2,1,14,2
1448711451580243,-2,-9,-25,-10,-7,-4,-6,-2
1448711451580243,3,14,35,0,1,0,2,2
1448711451587248,-6,-11,-36,5,5,0,-1,-2
1448711451587248,3,11,28,2,2,3,0,1
1448711451603260,-3,-7,-2,-1,0,-1,0,-3
1448711451603260,0,5,6,-2,-3,2,10,-1
1448711451604761,-2,-13,-4,0,-4,-4,-26,-2
1448711451604761,0,-4,-1,-8,-5,-2,11,-1
1448711451625776,7,-2,-3,4,3,-3,-57,-1
1448711451625776,-1,13,4,-3,-1,-5,21,-5
1448711451627277,1,-3,-2,-5,-4,9,79,7
1448711451627277,-6,0,7,-2,-3,-5,-19,-1
1448711451639285,-2,-1,-1,-6,-2,0,39,-1
1448711451639285,-1,-6,-1,6,5,1,-36,3
1448711451648291,-1,7,0,-7,-5,-5,-22,-3
1448711451648291,-2,-4,2,9,5,1,-4,0
1448711451663301,-4,4,2,8,3,0,-10,0
1448711451663301,-4,-4,5,-14,-6,-3,7,-2
1448711451664804,1,-1,-15,0,-7,-1,-6,1
1448711451664804,1,-1,20,-3,2,1,-8,3
1448711451685817,4,16,28,10,7,-1,-3,-3
1448711451685817,-1,-10,-46,1,6,4,3,2
1448711451687319,-6,-14,5,-4,-4,-3,6,-6
1448711451687319,-1,-5,-1,-9,-7,0,0,2
1448711451699328,-1,-1,4,-2,-2,-8,-87,-4
1448711451699328,0,7,48,1,-5,0,67,-1
1448711451709335,-4,4,-26,-3,0,-6,-109,-3
1448711451709335,-5,-11,-35,-13,-6,3,101,-4
1448711451723344,0,5,-15,1,2,7,37,7
1448711451723344,-2,-3,9,4,1,0,-9,-3
1448711451724845,3,4,24,5,2,0,-26,0
1448711451724845,1,-1,6,0,-2,-5,-33,-6
1448711451745861,0,-7,-11,0,-3,-3,10,-1
1448711451745861,-1,-12,-14,-3,0,-1,-15,2
1448711451747361,2,8,24,3,1,1,17,-1
1448711451747361,1,-2,7,9,2,-2,-84,0
1448711451759371,-3,1,8,-3,-2,0,69,-3
1448711451759371,-6,4,-34,-10,-8,-3,18,2
1448711451768377,-5,-1,3,-7,-2,-1,19,0
1448711451768377,0,1,7,-1,0,-2,-70,-2
1448711451783387,0,5,1,6,1,1,39,-4
1448711451783387,0,-4,8,2,1,-1,-58,0
1448711451784889,-2,7,-20,0,0,0,49,-5
1448711451784889,-2,-4,1,-6,0,2,-15,1
1448711451805903,2,2,0,-1,-2,-3,-27,-4
1448711451805903,-9,-8,-20,-7,-7,-2,39,-2
1448711451807405,3,3,11,5,0,-1,-16,-6
1448711451807405,1,3,-13,-1,0,3,50,4
1448711451819422,-4,-16,-64,-4,2,3,40,6
1448711451819422,-1,-2,25,-12,-6,-1,15,1
1448711451828420,3,6,22,1,1,-2,-41,-1
1448711451828420,-4,-8,-15,-4,-5,-5,-2,-9
1448711451843430,1,11,15,-2,-2,0,-5,-1
1448711451843430,4,15,8,10,1,1,-14,-2
1448711451844931,-6,-25,-11,5,4,-3,14,-2
1448711451844931,3,16,23,6,5,4,-1,2
1448711451865945,-10,-33,-17,-5,-4,-3,-13,-5
1448711451865945,-1,0,1,-4,-3,-3,-26,-6
1448711451867446,0,2,-6,-12,-2,-2,-19,3
1448711451867446,0,2,3,0,-2,-2,57,-4
1448711451879455,-1,4,5,2,1,5,-15,7
1448711451879455,-3,-11,-28,-7,-2,-8,-21,-8
1448711451888461,-1,-5,-13,-3,-5,3,50,-1
1448711451888461,2,1,3,-2,-5,0,30,8
1448711451903472,1,3,5,-2,-2,0,22,2
1448711451903472,0,-1,24,4,1,1,-3,2
1448711451904973,-1,4,2,0,0,-4,-39,-3
1448711451904973,-1,2,-22,-6,-4,-4,-9,-5
1448711451925987,-3,-3,5,-8,0,0,-14,-4
1448711451925987,0,-3,-8,16,5,-2,-12,-1
1448711451927489,-5,-12,9,-9,-5,1,8,-2
1448711451927489,1,3,13,6,7,0,-11,-1
1448711451939498,-1,0,-6,-1,-2,-1,-11,0
1448711451939498,1,-3,3,-3,2,-5,-89,-6
1448711451948516,-2,10,-10,-4,-5,2,88,1
1448711451948516,3,-3,-1,-4,-4,-1,-11,4
1448711451964016,-1,3,5,1,0,-5,-15,-6
1448711451964016,-4,-4,-3,-4,-3,1,28,7
1448711451965528,1,-5,-1,2,1,0,16,3
1448711451965528,-1,-8,-3,-5,-1,0,-28,-1
1448711451986031,2,7,12,1,-3,0,31,2
1448711451986031,-8,6,-11,-3,-1,-3,-10,-7
1448711451987532,-5,-6,-11,0,-2,-1,-7,-3
1448711451987532,-8,-11,1,-1,-3,-2,-1,-3
1448711451999541,-4,-7,-11,-3,-3,-7,-44,-10
1448711451999541,1,6,17,-11,-5,0,50,0
1448711452008547,2,4,-7,-8,1,4,-4,6
1448711452008547,-1,9,20,24,7,0,-7,-2
1448711452023556,9,10,-6,0,2,1,-10,5
1448711452023556,-6,-13,27,11,1,-5,18,-2
1448711452025057,1,0,-88,-24,-2,-4,-57,-5
1448711452025057,-9,-38,10,-7,-9,-7,18,-2
1448711452046073,-2,-9,2,3,2,1,32,1
1448711452046073,1,10,3,-1,-4,0,2,1
1448711452047573,3,5,18,11,2,-1,-10,-1
1448711452047573,11,16,-3,2,-1,-1,-42,-1
1448711452068590,4,1,4,-6,-5,0,15,0
1448711452068590,0,1,-3,3,4,4,38,4
1448711452070091,-2,4,40,12,0,2,40,5
1448711452070091,-16,-5,-56,-24,-11,-4,16,-8
1448711452083600,4,10,55,8,-10,-2,-15,0
1448711452083600,15,17,-19,-9,7,0,-19,1
1448711452085102,-1,-26,41,16,8,-1,-23,0
1448711452085102,-7,-22,-53,-22,2,1,3,-1
1448711452105116,-3,-19,30,7,0,-2,-5,0
1448711452105116,2,46,-38,2,4,4,-2,-2
1448711452106117,9,19,64,8,-4,-3,-4,-1
1448711452106117,3,-34,-7,7,11,4,10,2
1448711452127630,-22,-29,-21,-22,-6,-4,-6,-7
1448711452127630,-8,-30,-2,-6,-10,-6,-14,-5
1448711452128632,0,7,-24,0,2,0,5,1
1448711452128632,9,13,17,0,-8,-5,-5,-1
1448711452142641,13,24,-12,3,4,2,-8,5
1448711452142641,-18,-2,14,3,-1,1,7,-8
1448711452143643,0,17,-12,-3,-3,1,15,5
1448711452143643,7,17,30,4,3,3,-23,0
1448711452165158,0,-1,2,2,4,5,47,3
1448711452165158,1,-11,14,-6,-7,-8,-12,-2
1448711452166159,-3,-10,-22,-3,0,-7,-2,11
1448711452166159,0,11,26,-1,-1,-2,12,-5
1448711452188174,7,16,9,3,3,-1,-1,3
1448711452188174,-4,-26,3,-2,-1,-1,-12,2
1448711452189175,-1,-15,-8,-5,-7,-4,4,-7
1448711452189175,6,6,16,2,0,1,-10,-1
1448711452202184,-9,6,-22,1,-1,-4,-13,-2
1448711452202184,3,-20,-10,6,6,3,8,2
1448711452209690,-6,29,55,-2,-5,-2,-22,-7
1448711452209690,3,5,-66,-8,-3,0,10,8
1448711452225199,1,1,2,-4,-2,0,-5,-2
1448711452225199,0,-3,-2,9,5,3,-5,-1
1448711452226201,5,16,-1,10,6,2,-10,-5
1448711452226201,-12,-43,-13,-13,-5,-1,14,-1
1448711452247715,8,26,-3,6,2,0,-12,1
1448711452247715,0,-26,-40,-15,-6,-2,7,-2
1448711452248716,0,21,55,7,-2,0,5,0
1448711452248716,-12,-48,-12,-11,-5,-2,-6,-6
1448711452262226,-2,-20,-5,0,0,-3,4,4
1448711452262226,-1,11,-7,4,1,-2,-27,-5
1448711452269235,-5,-13,-4,-11,-2,2,13,-1
1448711452269235,5,33,27,16,2,0,2,-3
1448711452285245,-14,-19,-21,-3,-1,-3,-33,-5
1448711452285245,3,4,18,-4,-4,0,22,8
1448711452286112,8,0,-21,-5,-1,1,-11,2
1448711452286112,-4,19,18,7,0,0,-4,-1
1448711452316133,10,35,21,7,5,3,2,13
1448711452316133,-18,-38,-55,-17,-8,-5,-3,-26
1448711452316633,-8,-25,-34,-12,-8,-4,-2,-5
1448711452316633,-3,17,6,4,2,4,8,1
1448711452322638,-3,34,19,8,5,0,-4,-10
1448711452322638,3,-11,36,0,1,-2,-3,5
1448711452323639,-5,-33,-47,-8,-2,-2,0,-1
1448711452323639,3,37,3,-5,1,-4,-3,1
1448711452345154,-9,-36,18,1,-5,-3,-3,-8
1448711452345154,12,26,19,4,0,2,5,5
1448711452346154,-2,-12,-19,0,0,-1,1,-4
1448711452346154,11,-5,18,14,4,2,4,8
1448711452368170,5,-7,-31,-23,-7,-4,-7,-4
1448711452368170,7,2,9,11,4,1,4,7
1448711452369170,-16,8,14,2,6,4,1,0
1448711452369170,-34,-18,-20,-13,-9,-11,-11,-17
1448711452382681,-1,-26,-9,-5,-11,-4,1,-8
1448711452382681,-1,-1,2,4,11,7,3,3
1448711452383682,22,9,6,7,4,4,17,14
1448711452383682,15,13,13,3,2,3,0,18
1448711452405197,-8,-6,-7,-9,-4,4,-8,-19
1448711452405197,4,8,2,-13,-15,-22,-38,-14
1448711452406198,-3,4,1,9,0,-7,-24,-10
1448711452406198,-9,-10,-2,-2,-1,0,14,1
1448711452427712,-2,9,-4,-4,-2,2,17,13
1448711452427712,5,13,8,12,1,8,12,7
1448711452428713,3,-9,-8,-6,-2,-2,2,-3
1448711452428713,2,-3,-6,-3,0,0,2,4
1448711452442723,-3,-7,-15,-22,-9,-2,-2,1
1448711452442723,-8,-7,3,7,3,0,0,-3
1448711452443723,-6,-2,6,-3,-7,-6,-8,-5
1448711452443723,13,35,14,13,7,4,8,4
1448711452465238,-18,1,-1,15,9,0,7,1
1448711452465238,11,-8,-4,-15,-12,-6,-7,-6
1448711452466238,3,14,-5,-3,-2,-3,1,3
1448711452466238,10,-4,-3,-5,-4,1,13,12
1448711452487755,-6,-9,-5,-3,-4,-6,-14,-6
1448711452487755,-11,2,5,8,3,-6,-28,-25
1448711452488256,-22,-31,-3,-8,-4,-12,-28,-20
1448711452488256,-15,16,-1,-19,-6,-2,-7,-13
1448711452502265,14,-2,4,12,-3,0,15,11
1448711452502265,16,25,-2,-2,0,9,16,15
1448711452509771,8,-26,-6,2,3,3,3,4
1448711452509771,1,-14,-3,5,2,-4,-2,-1
1448711452525281,9,-1,-12,-10,-2,-1,7,11
1448711452525281,-4,2,18,1,0,3,8,1
1448711452525781,1,11,5,10,-10,2,0,-1
1448711452525781,-12,-55,-25,-31,1,1,6,1
1448711452547798,16,17,9,20,3,2,3,1
1448711452547798,-1,-2,-10,-6,5,1,2,2
1448711452548298,5,1,5,6,-3,-1,2,-4
1448711452548298,-24,-11,-17,3,2,-3,-18,-10
1448711452570314,-13,-6,0,-7,-1,-4,-18,-22
1448711452570314,-3,-7,3,-1,4,-5,-4,-4
1448711452570815,-2,-6,6,-6,-3,1,4,2
1448711452570815,-19,-2,-7,-2,-7,-8,-15,-12
1448711452585324,2,-23,-17,-13,-2,-3,13,11
1448711452585324,-9,5,4,-18,-18,1,9,10
1448711452585824,13,11,12,28,14,2,0,-5
1448711452585824,18,6,-1,-3,5,5,1,6
1448711452607839,0,9,15,21,10,7,7,2
1448711452607839,4,-12,-16,4,3,-2,-3,-5
1448711452608340,-6,0,-8,0,-1,0,-5,10
1448711452608340,23,45,25,0,-10,-2,6,6
1448711452621849,-18,-7,-15,12,10,-5,-20,-18
1448711452621849,10,12,13,-1,3,1,12,8
1448711452629369,-2,-18,-30,-25,-4,5,14,7
1448711452629369,-7,13,28,29,7,3,3,1
1448711452645379,-3,-4,-8,-30,-19,-9,-7,-6
1448711452645379,-18,-6,-18,-12,-4,3,12,6
1448711452645867,-34,4,11,2,3,-11,-32,-33
1448711452645867,24,6,5,8,-2,-1,-3,5
1448711452668383,30,11,2,1,7,15,31,22
1448711452668383,-24,9,0,0,1,2,1,2
1448711452669384,-8,-7,-4,-14,-23,-24,-49,-38
1448711452669384,-28,-1,-2,-11,-2,-12,-27,-29
1448711452690898,3,-11,6,29,5,0,3,3
1448711452690898,23,10,0,-17,-14,3,11,11
1448711452691899,-5,15,-19,5,15,17,43,32
1448711452691899,-3,-35,13,-16,-6,-2,-3,-8
1448711452705407,5,28,6,24,14,4,12,5
1448711452705407,4,-13,-15,2,7,3,26,22
1448711452705909,22,-2,-4,-1,2,7,18,16
1448711452705909,-9,20,-4,-19,-11,-2,-15,-1
1448711452727923,-39,9,29,-4,-16,-1,8,-7
1448711452727923,33,31,1,4,3,-8,-53,-38
1448711452728424,-25,-17,-7,2,3,-9,-22,-26
1448711452728424,62,-6,2,-4,3,3,10,24
1448711452750440,-28,11,-4,-21,-12,-4,-7,4
1448711452750440,17,12,10,17,9,15,63,47
1448711452750942,0,0,-14,-17,-9,3,30,23
1448711452750942,-43,4,9,33,-3,-23,-87,-95
1448711452764952,-12,4,28,-18,1,-6,-14,-19
1448711452764952,28,-8,-14,29,4,0,19,18
1448711452765952,7,4,0,-9,-10,1,-8,-1
1448711452765952,19,68,43,46,14,13,27,19
1448711452787468,3,-68,-31,-17,4,0,-23,-14
1448711452787468,-29,-5,8,21,7,0,2,-12
1448711452788468,20,-24,-29,36,19,11,36,35
1448711452788468,14,-9,-11,-26,-8,9,31,31
1448711452810982,20,44,35,5,-10,1,28,22
1448711452810982,23,-22,12,2,18,-3,-15,13
1448711452811983,-84,0,-33,-11,-4,-22,-93,-93
1448711452811983,-39,-44,-9,-19,-9,-16,-13,-40
1448711452824993,46,2,-27,-1,6,9,31,44
1448711452824993,1,35,20,-24,-27,-9,-17,-19
1448711452825994,-15,7,56,-15,-24,-21,-53,-45
1448711452825994,-20,-76,-72,-51,-3,-11,-19,-3
1448711452847509,-12,7,25,50,13,7,18,-4
1448711452847509,7,11,-35,1,1,-4,-31,-23
1448711452848509,48,29,34,-3,10,8,24,21
1448711452848509,19,25,-19,14,-1,20,56,43
1448711452862031,9,-71,65,5,-27,1,15,18
1448711452862031,46,7,-66,-55,36,11,19,38
1448711452870526,1,-7,-23,16,3,2,41,30
1448711452870526,-26,21,-25,-13,11,1,1,-20
1448711452885036,-30,-2,4,-13,-5,-1,-2,-4
1448711452885036,-56,-27,15,-3,-26,-20,-30,-18
1448711452886037,8,-16,-17,-17,-8,-7,-36,-37
1448711452886037,10,-8,42,46,1,-7,-51,-25
1448711452907565,13,21,-36,-1,14,3,13,10
1448711452907565,8,47,16,-24,-16,-4,-4,0
1448711452908566,-13,18,-6,-9,0,-6,5,0
1448711452908566,-9,-71,31,-17,-44,-17,-14,-3
1448711452922063,-24,-39,-21,-18,28,6,-34,-38
1448711452922063,15,-39,-45,15,1,6,22,15
1448711452930066,24,67,56,45,6,16,31,37
1448711452930066,-7,15,-39,-41,11,-3,12,9
1448711452945096,-12,-30,15,17,-5,-8,-3,-9
1448711452945096,-77,-35,32,52,-4,-1,52,21
1448711452946079,34,4,-28,-103,-44,-5,-23,6
1448711452946079,-2,3,-20,111,47,-2,-33,-27
1448711452967606,-17,-30,-56,20,-2,-3,-32,-34
1448711452967606,30,45,-13,-4,27,8,-6,-3
1448711452968607,23,14,33,-12,-28,-8,19,19
1448711452968607,45,73,57,-31,-22,31,98,87
1448711452982105,35,89,12,81,39,29,80,75
1448711452982105,-34,-128,-67,-50,-5,-26,-95,-80
1448711452990111,-49,-31,-36,-14,7,-31,-55,-51
1448711452990111,37,11,-6,-15,-8,5,53,37
1448711453005121,6,-18,-2,-6,2,3,-23,-30
1448711453005121,-19,70,103,48,-20,0,13,9
1448711453006122,7,-63,-53,-44,1,9,46,42
1448711453006122,-12,-38,1,-42,-32,-4,-24,-45
1448711453036143,38,-13,-46,-42,6,18,59,57
1448711453036143,47,0,19,16,36,11,16,33
1448711453036644,-106,13,71,115,-22,-27,-93,-78
1448711453036644,-63,-1,-78,-87,16,-26,-69,-40
1448711453051154,-12,-67,-93,-58,-26,-21,-19,-12
1448711453051154,27,83,93,85,-69,7,31,13
1448711453051654,41,-77,-89,27,80,40,56,37
1448711453051654,32,37,26,31,-5,2,25,20
1448711453065163,13,43,-19,-58,-21,-14,4,-6
1448711453065163,-53,-14,-43,-37,-15,-24,-89,-65
1448711453072668,78,48,76,29,-6,10,41,60
1448711453072668,-20,-96,-9,9,11,12,17,-2
1448711453089179,-32,10,35,14,-2,-27,-79,-49
1448711453089179,-27,-8,-16,-40,1,2,29,-1
1448711453089680,-21,-12,18,-90,-43,-18,-49,-46
1448711453089680,-5,12,18,47,11,-11,1,13
1448711453111196,36,34,-26,-18,-1,24,71,54
1448711453111196,-24,7,5,-11,7,-5,-30,-44
1448711453112196,24,10,-67,30,40,27,56,54
1448711453112196,21,-35,18,-20,-36,-14,-19,-19
1448711453125204,-18,75,86,32,10,14,5,3
1448711453125204,-17,-104,-42,22,-5,-19,2,16
1448711453126205,50,49,32,-3,19,13,12,18
1448711453126205,-50,28,84,90,-7,-13,-62,-67
1448711453147722,31,33,-77,-93,23,-2,-8,4
1448711453147722,-69,-41,-21,-16,41,29,11,-25
1448711453148723,11,44,27,25,-12,-8,14,4
1448711453148723,1,17,-21,-30,-18,-11,12,30
1448711453170749,-6,48,69,7,-25,7,-9,-17
1448711453170749,38,85,91,-28,-20,35,125,96
1448711453171750,0,31,-99,-60,3,-14,36,40
1448711453171750,-16,22,-6,72,64,-6,-82,-80
1448711453185261,-31,17,26,2,-31,-46,-111,-85
1448711453185261,9,-76,-75,-56,-6,14,23,19
1448711453186248,19,10,75,53,6,19,33,19
1448711453186248,45,36,65,-16,-27,10,61,54
1448711453207764,-38,-58,-92,-51,50,-7,-69,-40
1448711453207764,-26,-50,32,70,4,-26,-58,-44
1448711453208265,48,30,-22,-25,17,34,84,69
1448711453208265,-20,-47,-14,9,11,21,34,22
1448711453230781,60,-60,-5,-52,-36,-19,-15,-4
1448711453230781,-29,21,-47,41,51,10,5,0
1448711453231782,-69,-53,52,28,-42,-42,-128,-112
1448711453231782,11,-46,-61,-68,0,20,73,40
1448711453245809,-13,52,35,81,-8,-16,-13,18
1448711453245809,48,20,-20,-51,-22,-17,-34,-24
1448711453252796,71,37,58,-74,-61,8,94,92
1448711453252796,-101,-39,-128,45,72,52,4,-1
1448711453267807,13,-59,74,34,-37,-81,-88,-95
1448711453267807,30,33,35,-7,7,-4,43,20
1448711453268307,24,25,-22,74,30,20,58,35
1448711453268307,28,56,-18,-68,-36,-8,-11,8
1448711453290823,-73,-15,-44,-76,24,47,81,51
1448711453290823,4,80,73,-4,-19,11,51,39
1448711453291824,-84,-85,-95,-17,-27,-93,-122,-128
1448711453291824,-15,-51,56,-7,-5,-9,22,-2
1448711453305332,62,63,-2,36,11,23,69,54
1448711453305332,13,-57,-67,-68,9,16,57,58
1448711453305834,-104,-73,-9,-10,32,-18,-58,-66
1448711453305834,18,-1,-7,94,0,-18,20,24
1448711453327849,76,-1,61,-37,-44,-12,-17,-42
1448711453327849,37,19,15,16,5,4,-51,0
1448711453328349,8,-29,-1,46,28,17,10,7
1448711453328349,-46,-25,10,-35,-75,-81,-128,-91
1448711453350864,67,-19,-25,-7,-11,4,8,21
1448711453350864,-58,27,2,9,11,38,82,41
1448711453351865,-15,55,123,13,-3,38,53,36
1448711453351865,-34,23,-44,40,2,-48,-63,-61
1448711453365375,81,-16,52,60,6,38,64,81
1448711453365375,48,6,-10,72,3,-10,-43,-34
1448711453365875,-95,-98,-93,-74,54,38,74,36
1448711453365875,59,64,127,75,-19,58,73,85
1448711453388391,44,26,-128,76,98,-25,-69,-31
1448711453388391,-121,-40,47,18,-5,-50,-128,-128
1448711453395397,115,-34,81,71,-51,29,85,57
1448711453395397,-54,53,-56,-82,-20,-6,-37,-22
1448711453410407,-128,-92,28,-28,-29,-16,7,-5
1448711453410407,32,-35,34,32,-91,-27,51,26
1448711453410920,2,11,-101,-87,-26,-27,-126,-107
1448711453410920,117,49,35,-57,29,18,19,23
1448711453425419,53,44,11,60,53,31,40,43
1448711453425419,-56,61,81,94,11,9,46,49
1448711453425919,103,-23,-43,7,38,11,3,6
1448711453425919,50,60,-31,-32,22,31,104,78
1448711453439428,-128,-63,-10,-9,13,1,-32,-72
1448711453439428,31,1,16,13,9,-26,-58,-2
1448711453446934,52,25,27,8,-47,-15,-38,-31
1448711453446934,49,6,5,-71,-64,16,79,92
1448711453462944,-63,-64,-51,-108,-48,-52,-55,-66
1448711453462944,31,-72,-41,45,-22,-17,50,54
1448711453463445,-43,32,-29,-82,-7,0,17,13
1448711453463445,-49,19,15,46,78,1,-34,-45
1448711453478456,-27,62,30,127,20,38,64,55
1448711453478456,-121,-66,-28,-66,-16,-37,-123,-128
1448711453484460,64,12,6,57,24,2,14,59
1448711453484460,69,47,78,-22,-61,21,69,50
1448711453507986,-22,-27,-57,-60,4,16,-14,-2
1448711453507986,2,-50,-55,32,58,-3,-48,-30
1448711453508476,43,71,45,-7,-1,58,127,127
1448711453508476,-54,-80,-44,14,10,-6,-28,-9
1448711453529993,14,2,16,-71,-70,-78,-102,-87
1448711453529993,86,46,26,38,13,32,110,95
1448711453530994,16,40,4,-16,17,-1,16,-2
1448711453530994,-31,-17,-4,0,23,-35,-83,-50
1448711453545003,91,7,8,26,-28,17,43,40
1448711453545003,13,25,-19,-92,-47,-6,-19,-26
1448711453546004,-75,2,12,-32,-18,-15,-11,-9
1448711453546004,-46,-57,32,92,62,23,24,-21
1448711453567518,-61,9,8,57,34,9,9,4
1448711453567518,97,77,69,-4,-48,-1,-5,11
1448711453568519,-34,-50,-104,-70,29,5,-41,-27
1448711453568519,-2,-44,6,26,13,-10,-2,1
1448711453590034,-83,-7,32,85,-33,-2,43,21
1448711453590034,16,-14,-68,-81,18,18,-11,-3
1448711453591035,60,63,39,116,42,-4,10,32
1448711453591035,-67,7,-26,-1,21,-7,-54,-65
1448711453604544,-25,21,53,-6,-7,26,35,28
1448711453604544,24,44,-25,-50,-13,37,99,104
1448711453612562,-106,-28,-23,-38,-55,-72,-128,-128
1448711453612562,34,-7,-10,-23,-27,-28,104,51
1448711453628574,46,-2,-6,-45,-57,-61,-84,-58
1448711453628574,-117,-43,-30,-48,-2,-17,-20,-60
1448711453629061,-52,-3,65,12,-5,38,65,46
1448711453629061,82,63,-73,-14,62,49,16,21
1448711453650077,20,48,-38,44,71,44,24,31
1448711453650077,27,-13,-9,-19,-29,-6,-9,17
1448711453651077,23,-8,30,107,52,6,-18,-4
1448711453651077,31,-27,18,-31,-14,-7,-18,-6
1448711453664599,28,9,-10,24,35,10,19,29
1448711453664599,58,63,-91,11,22,2,-22,-4
1448711453672605,-13,-17,19,-23,-39,-16,-3,-1
1448711453672605,-22,0,4,-23,-32,-13,-4,-6
1448711453687604,31,-34,22,-5,15,28,83,62
1448711453687604,-19,23,28,4,-8,-21,-75,-83
1448711453688605,28,13,-15,-46,-43,-29,-67,-48
1448711453688605,-58,3,-5,-14,-15,-6,-21,-16
1448711453710138,72,-35,-12,-30,-28,-8,93,96
1448711453710138,-108,-36,-15,-45,-26,-34,-73,-82
1448711453711119,-51,-39,0,-19,-7,-30,-2,-14
1448711453711119,54,26,25,37,14,17,6,14
1448711453724630,53,12,-1,-21,5,26,29,29
1448711453724630,32,1,4,70,74,49,73,72
1448711453732634,11,0,-3,50,45,18,13,9
1448711453732634,-27,-44,34,-3,-55,-18,-10,-5
1448711453747658,-2,25,39,-40,-38,-10,-28,-25
1448711453747658,20,-19,-59,17,55,6,2,5
1448711453749646,-8,12,-30,9,16,1,-9,-7
1448711453749646,22,66,15,-1,-6,2,27,30
1448711453770162,90,-14,8,-57,-52,-15,0,24
1448711453770162,-88,24,21,-18,-12,-2,-24,-65
1448711453771163,-52,-61,-8,-9,-22,-3,-13,-26
1448711453771163,81,-54,-41,-31,-11,-11,13,42
1448711453784673,-63,1,-3,-18,-4,-35,-109,-106
1448711453784673,23,-11,34,37,8,-11,14,25
1448711453792677,89,32,-4,-4,5,25,72,72
1448711453792677,16,-14,-15,-18,-12,-4,-46,-42
1448711453807687,-40,29,24,-1,-25,-8,-15,-14
1448711453807687,-24,-5,-7,15,31,10,7,16
1448711453808688,-93,-27,21,15,16,11,4,-18
1448711453808688,2,-60,-42,-15,32,20,37,31
1448711453830704,6,10,8,29,27,8,12,11
1448711453830704,50,26,19,-10,-26,-13,0,10
1448711453831705,30,-46,10,-18,-31,-8,3,6
1448711453831705,-15,-3,-9,-3,5,-1,-1,-6
1448711453854221,-20,1,-9,19,15,5,-11,-26
1448711453854221,20,11,12,-31,-17,-2,6,9
1448711453854722,37,67,-3,0,-3,0,17,25
1448711453854722,-7,-11,3,-13,-22,-12,4,12
1448711453867730,-27,-22,-17,2,2,5,-20,-23
1448711453867730,10,-33,9,-2,0,-13,4,12
1448711453868732,-85,-41,-14,-17,-34,-25,-24,-42
1448711453868732,7,-13,5,-15,-2,-12,-52,-42
1448711453890247,-7,28,-6,47,61,25,24,8
1448711453890247,15,0,-8,-14,-12,8,11,17
1448711453891246,38,39,-2,1,15,-9,-3,2
1448711453891246,-75,5,30,45,-14,4,19,-10
1448711453904756,1,-18,-39,-61,-11,-3,7,10
1448711453904756,22,-9,9,47,6,1,-4,4
1448711453912762,20,-5,-5,-5,-1,4,1,9
1448711453912762,23,31,-7,29,24,12,14,4
1448711453927790,-18,-16,13,-9,3,-1,-6,-7
1448711453927790,-10,10,-4,-9,-9,7,0,-3
1448711453928774,26,6,-2,-13,-7,-4,-5,5
1448711453928774,40,52,3,4,-6,9,22,17
1448711453950801,-4,-23,-4,-7,-18,-21,-9,11
1448711453950801,21,20,-10,-28,-8,-12,-16,-38
1448711453951290,-70,-45,9,-6,-29,-11,-19,-27
1448711453951290,-58,-42,-13,-28,21,17,29,-7
1448711453973306,39,18,17,58,22,-1,-2,-7
1448711453973306,54,-6,13,-16,-18,-4,-19,9
1448711453974307,10,17,-20,23,18,-2,-6,-3
1448711453974307,-19,-24,-20,-36,-1,-12,-21,-8
1448711453987816,-29,11,21,25,0,21,35,17
1448711453987816,-4,-18,9,21,32,15,21,20
1448711453988317,42,30,-9,31,44,16,2,5
1448711453988317,20,15,4,8,-3,-4,2,10
1448711454010344,7,-12,-20,-36,-16,-12,-11,-7
1448711454010344,3,-26,-9,-10,-29,-13,-7,-5
1448711454010833,1,-4,0,-30,-24,-3,-4,3
1448711454010833,3,-3,-8,-2,-9,-2,-1,-7
1448711454034348,13,14,2,-5,-12,-17,-17,-8
1448711454034348,22,31,6,3,1,7,15,8
1448711454034849,-57,-28,8,-2,5,11,12,9
1448711454034849,-46,-14,-5,15,7,-4,-10,-19
1448711454056376,-20,-28,-12,1,-9,-2,22,6
1448711454056376,-33,-12,-6,-28,-5,10,40,35
1448711454057377,3,-13,0,-19,-16,-25,-93,-80
1448711454057377,12,6,7,25,-3,-31,-65,-46
1448711454070386,-35,-30,-11,-20,13,4,-5,-12
1448711454070386,2,23,25,4,-4,3,19,19
1448711454070887,27,27,-20,6,24,20,61,48
1448711454070887,34,28,21,23,2,11,9,15
1448711454093391,13,25,-3,-4,1,6,-1,1
1448711454093391,2,-2,-12,-13,-17,-9,-4,2
1448711454094392,0,3,-21,-35,-19,-1,1,-2
1448711454094392,11,4,4,-1,8,-5,-4,-1
1448711454107913,-2,20,32,32,13,19,14,5
1448711454107913,-25,-15,-30,7,5,-11,-32,-13
1448711454108402,7,-28,1,-4,-16,-14,5,-3
1448711454108402,-2,-3,-18,-14,-12,-20,6,3
1448711454130417,-3,36,6,-10,-25,-2,-5,-3
1448711454130417,7,0,2,-14,-2,-6,-5,-13
1448711454130917,-4,7,14,27,21,6,-13,10
1448711454130917,0,-11,-2,1,7,8,5,6
1448711454153433,-2,24,3,-7,5,2,9,-6
1448711454153433,-19,-17,-3,15,6,0,-6,-9
1448711454154437,26,11,6,2,-7,-1,11,15
1448711454154437,-38,-6,5,-15,-10,0,-2,-4
1448711454168443,-9,-7,-13,-2,1,-3,-23,-10
1448711454168443,-4,1,0,-2,6,4,7,-2
1448711454168943,-9,5,10,4,-11,-10,7,0
1448711454168943,31,7,-4,-13,-21,-6,-3,5
1448711454190459,-2,-4,-9,-11,-13,-3,-4,-3
1448711454190459,-17,-5,5,28,41,7,5,-3
1448711454190960,3,-12,24,24,23,12,6,2
1448711454190960,-6,-30,-22,-4,-8,-6,-2,-1
1448711454213476,0,-5,-15,-18,-16,-7,5,-1
1448711454213476,3,13,10,-18,-20,-12,-6,-2
1448711454214476,-2,10,4,5,3,8,-5,0
1448711454214476,-1,3,-23,-8,0,1,-2,0
1448711454227497,-6,-13,1,0,-4,-7,-3,1
1448711454227497,4,0,0,-1,-7,-1,-5,-4
1448711454228486,-3,-19,-2,-3,2,0,9,0
1448711454228486,0,1,13,7,4,7,4,-2
1448711454250501,-7,3,2,-3,-2,-4,-11,-1
1448711454250501,4,1,2,-4,-3,1,0,-1
1448711454251002,-1,13,-2,2,4,3,8,2
1448711454251002,0,1,11,4,0,2,0,0
1448711454273517,3,-7,-8,0,2,-6,-7,-4
1448711454273517,-3,-10,-4,-1,4,4,1,2
1448711454274017,-12,-6,13,1,-5,-3,-3,-1
1448711454274017,2,-9,-2,4,2,-1,0,1
1448711454287528,-2,-14,-17,-6,2,-4,-2,-1
1448711454287528,-1,3,-2,-3,-2,0,-3,-2
1448711454288529,4,11,-11,-3,-5,-1,0,-1
1448711454288529,0,16,19,4,1,-2,0,0
1448711454310044,-3,1,-3,-3,2,4,-2,-1
1448711454310044,0,-15,-1,-5,-2,-4,-3,0
1448711454311046,-4,-1,-13,0,0,-1,-3,-3
1448711454311046,-3,1,-13,-3,1,1,2,-3
1448711454334061,3,20,24,1,-1,-2,-1,0
1448711454334061,1,-6,-37,-11,-4,-4,-3,-4
1448711454334562,0,1,9,0,0,-4,-2,-1
1448711454334562,1,-1,-2,-1,-2,-1,0,2
1448711454347570,-4,-6,-2,5,2,0,-3,-1
1448711454347570,-1,0,23,1,2,0,-2,-1
1448711454348571,1,-11,-33,-6,-3,-4,-1,1
1448711454348571,-4,-2,0,3,0,1,1,0
1448711454370086,6,1,-4,-3,-3,-2,0,1
1448711454370086,3,0,32,9,0,-1,0,0
1448711454371099,-6,21,-19,-2,-1,-1,-1,0
1448711454371099,-2,1,10,-3,-2,-3,-1,-3
1448711454393615,0,-16,-1,-1,-1,-2,-2,0
1448711454393615,0,2,20,0,-2,1,-2,2
1448711454394104,3,-11,-10,2,-2,0,-4,2
1448711454394104,0,-6,3,-1,0,0,-3,-1
1448711454407613,-1,-14,-5,-7,-5,-4,-3,-4
1448711454407613,-4,1,-1,0,-4,-2,1,-2
1448711454408614,-2,26,20,-4,1,1,3,-1
1448711454408614,19,-5,-2,9,4,2,5,1
1448711454430128,2,23,-3,-1,1,1,2,1
1448711454430128,-2,-2,13,3,-1,1,1,-2
1448711454431128,-2,2,6,-5,-7,-4,-3,-1
1448711454431128,-2,12,-2,-2,-1,0,-1,-2
1448711454453646,-3,6,4,2,1,-1,1,-1
1448711454453646,-4,-12,-27,-6,-1,-2,-3,-2
1448711454454146,6,-10,8,0,-2,-1,0,2
1448711454454146,-10,1,4,-4,-2,0,0,-2
1448711454467656,-4,-13,-2,2,0,-2,-3,0
1448711454467656,-2,11,9,2,1,0,0,0
1448711454468656,1,0,-8,-2,-2,-4,-1,-1
1448711454468656,-2,3,1,-6,-4,-2,1,2
1448711454490170,-2,0,4,3,1,-1,-1,-1
1448711454490170,-3,-6,-38,-5,-1,0,1,-1
1448711454491172,-1,-1,15,3,3,2,1,0
1448711454491172,-2,-5,-10,-1,-3,-1,-3,-1
1448711454513188,-1,-2,1,-3,-2,-1,0,0
1448711454513188,2,2,2,-1,1,-1,-1,1
1448711454514189,-5,-7,5,3,-1,0,-1,-3
1448711454514189,-4,-2,-1,0,0,-3,-2,-2
1448711454528699,0,-8,-6,-5,-2,-4,-4,-2
1448711454528699,-5,-32,-2,-4,-2,-2,-2,-4
1448711454535202,1,5,-4,-2,-2,-2,-2,0
1448711454535202,2,24,16,1,1,-2,0,-2
1448711454550213,3,2,5,5,0,1,0,2
1448711454550213,7,1,-6,-2,-4,-4,-2,1
1448711454551214,-7,3,6,-2,-1,2,0,-1
1448711454551214,-8,-19,-13,-3,1,-1,-3,-3
1448711454573229,5,-8,3,-1,0,-2,-1,0
1448711454573229,0,12,3,0,-2,-1,-1,-1
1448711454574230,0,-7,7,-1,0,-1,-1,0
1448711454574230,1,9,-4,-1,-2,-1,1,1
1448711454587252,-2,-3,-11,-6,-3,-2,0,-1
1448711454587252,-1,0,-5,6,6,2,0,0
1448711454595258,1,-1,1,0,-1,-3,0,-2
1448711454595258,1,-4,-3,-3,-1,-3,-2,0
1448711454610755,-2,3,-1,0,-3,-2,-2,0
1448711454610755,-1,5,-6,-2,-3,1,-1,0
1448711454611756,2,-2,0,0,-1,0,-1,-2
1448711454611756,3,-5,-1,-2,-1,-3,0,-1
1448711454633273,-1,1,-6,4,2,-1,-1,-1
1448711454633273,-1,6,4,1,-1,-1,0,0
1448711454634274,1,4,-5,-4,-1,1,1,-1
1448711454634274,0,-3,3,-3,-3,1,-1,-1
1448711454647283,3,-14,-5,-2,-2,0,-3,0
1448711454647283,1,28,0,-2,1,1,-2,-3
1448711454655289,0,5,8,0,-3,-1,-3,1
1448711454655289,-2,-6,6,0,0,-1,-3,-3
1448711454670311,-3,-10,-6,-3,-3,-2,2,-4
1448711454670311,-5,-12,-34,-7,-1,-2,-1,-1
1448711454671298,-2,-6,0,-2,-1,-2,-1,-1
1448711454671298,2,11,7,1,0,-1,0,1
1448711454693315,-3,12,21,2,5,2,0,0
1448711454693315,3,-3,8,1,-4,-3,-1,-2
1448711454694316,-2,-4,-6,-1,3,-1,-1,-1
1448711454694316,-5,-15,-12,2,0,-2,-1,-2
1448711454707325,-2,-1,-5,-5,-4,-4,-2,-2
1448711454707325,0,-1,-8,-2,-2,-1,-1,-2
1448711454715330,6,-3,1,0,2,-1,1,0
1448711454715330,-2,-3,2,6,-1,4,-1,0
1448711454730842,-2,0,-28,-4,1,0,1,-1
1448711454730842,-3,2,10,-2,-1,-2,0,-3
1448711454731843,-4,-3,1,-1,-4,-1,0,-2
1448711454731843,-1,3,-1,-5,-1,-2,-1,-2
1448711454761363,0,4,3,5,-2,0,0,1
1448711454761363,-1,2,4,0,-1,-3,-2,0
1448711454762363,-4,0,-3,-2,-1,-1,-2,-3
1448711454762363,1,-5,-6,-3,-3,-1,-3,0
1448711454768867,-3,5,2,-1,0,1,-1,-1
1448711454768867,1,-1,1,-2,2,1,0,0
1448711454775385,0,-30,-10,-4,-3,-3,-4,-1
1448711454775385,-2,-2,0,2,3,0,2,0
1448711454790384,1,12,4,0,-1,0,0,0
1448711454790384,0,9,3,0,-1,-2,0,0
1448711454790884,-3,-1,-21,-2,-2,0,-1,0
1448711454790884,-2,3,10,0,-3,-2,-1,-1
1448711454813398,1,-6,6,0,-4,-3,-2,-1
1448711454813398,-2,-11,-9,-1,-1,0,-1,-3
1448711454814413,-1,6,6,4,3,-2,-1,-2
1448711454814413,0,0,-18,-8,-4,-1,-1,-1
1448711454826927,3,-6,-2,-1,2,1,-1,-1
1448711454826927,-6,-2,17,2,-1,0,-1,-2
1448711454835433,1,6,13,1,0,-1,0,0
1448711454835433,0,1,-2,1,-2,-2,-2,0
1448711454850438,2,-3,7,1,-3,0,3,-1
1448711454850438,-2,-9,-11,-6,2,0,-3,1
1448711454850927,0,0,-5,-1,-1,1,0,-3
1448711454850927,-3,-4,-5,-2,-1,1,-2,1
1448711454873443,-4,0,-7,-1,-2,-1,-2,-1
1448711454873443,-4,11,2,1,0,-2,1,-2
1448711454874442,-1,9,2,-2,1,-1,2,1
1448711454874442,1,-4,-2,0,1,-1,-2,-3
1448711454895966,-2,0,2,-3,-2,-2,-3,-3
1448711454895966,-3,-3,7,-2,-3,-1,-1,-2
1448711454896960,0,-2,-8,-2,0,-1,-1,0
1448711454896960,0,-1,0,-6,-2,-3,-1,0
1448711454910469,-5,10,-8,2,3,0,2,1
1448711454910469,-1,-2,7,5,1,0,-2,1
1448711454910969,-1,-6,9,1,-1,0,-1,0
1448711454910969,-3,-8,-36,-6,-2,0,-2,-4
1448711454932985,-2,-3,-1,-4,-2,-3,0,-1
1448711454932985,-2,-18,-2,-2,-2,0,0,-3
1448711454933984,3,3,7,1,0,1,1,-1
1448711454933984,3,12,14,2,0,0,1,-1
1448711454956001,-3,-1,6,1,-1,0,-1,-2
1448711454956001,-1,-11,-31,-4,-3,-2,-2,-2
1448711454957002,0,4,-4,-3,-2,-3,-3,0
1448711454957002,-1,-7,5,3,0,1,2,-1
1448711454970511,3,7,0,-4,0,1,0,2
1448711454970511,2,-4,6,0,-1,-2,-2,1
1448711454971011,-3,0,-5,-1,-1,0,-1,-1
1448711454971011,-5,-3,1,-3,-3,-2,-2,-1
1448711454993526,-2,-13,0,0,0,-1,-1,-1
1448711454993526,0,7,6,0,0,0,0,-3
1448711454994027,-4,-7,-12,-3,-3,-2,-3,-3
1448711454994027,7,-14,4,2,1,0,1,0
1448711455016055,4,19,24,3,0,-2,-2,2
1448711455016055,-4,-20,-50,-4,-1,-3,-3,-2
1448711455017043,-1,-5,-6,-3,-2,-3,-3,-1
1448711455017043,-3,-1,3,-2,-2,-1,-2,-1
1448711455030052,-2,-10,-12,-1,-1,-1,-3,-4
1448711455030052,1,10,24,5,1,0,-1,-1
1448711455031053,3,9,7,2,2,1,2,0
1448711455031053,-2,-6,-20,-4,-3,-3,-1,-2
1448711455053569,-8,-22,13,-2,-2,0,-3,-3
1448711455053569,-3,7,-5,-4,-2,2,-1,-1
1448711455054069,-1,-6,-6,-1,0,-1,-2,1
1448711455054069,-5,10,10,0,1,-1,-2,-3
1448711455076084,-5,-5,-14,2,1,0,-2,0
1448711455076084,-1,0,8,0,-2,0,-1,0
1448711455076585,-2,2,1,-1,-1,-2,0,-2
1448711455076585,6,8,6,3,-1,-2,0,1
1448711455090094,3,5,-12,-3,-2,-3,1,-1
1448711455090094,-6,-8,6,-1,-2,-2,1,-3
1448711455091095,-5,-9,-13,-2,-2,0,1,0
1448711455091095,-8,-15,-4,-1,-1,-1,-1,-3
1448711455113612,-5,19,-1,-3,-2,0,-1,-2
1448711455113612,3,10,13,0,-2,-1,1,-1
1448711455114113,-3,-3,1,-1,-1,-2,-1,-2
1448711455114113,0,7,-9,-1,0,0,-2,-1
1448711455136140,1,-24,-6,-2,-2,0,-1,-1
1448711455136140,-7,-26,-5,-2,0,-1,-2,-3
1448711455136628,-3,-1,6,1,1,-1,-3,0
1448711455136628,6,4,1,-4,0,-1,-1,2
1448711455150138,-1,2,-3,-1,-1,1,1,0
1448711455150138,3,9,0,0,-2,0,-1,2
1448711455151138,-2,-16,26,2,-2,-6,-3,-1
1448711455151138,1,-1,7,2,-1,-2,-1,0
1448711455173655,-2,-5,-42,-9,-2,-6,-3,-1
1448711455173655,2,11,9,0,0,1,0,0
1448711455174155,3,14,-13,-3,-1,-2,0,-2
1448711455174155,1,9,15,-1,-2,-2,0,0
1448711455196171,2,1,17,2,-1,-1,1,-3
1448711455196171,7,-2,-14,-2,2,-1,0,0
1448711455196671,1,8,3,0,0,1,0,1
1448711455196671,-5,-3,2,-5,-1,0,-4,-8
1448711455210192,0,-3,-6,1,-1,-2,-3,-1
1448711455210192,3,16,8,-2,0,-2,-3,-1
1448711455211181,-4,-3,8,-1,0,0,-1,-4
1448711455211181,-1,15,-18,2,0,1,-1,1
1448711455233197,4,-1,1,-4,-5,-2,-2,2
1448711455233197,-1,5,36,2,-1,-3,-1,-1
1448711455234198,0,-6,-52,-5,-1,1,0,-1
1448711455234198,-5,-13,-2,-4,-2,-3,0,-1
1448711455256214,-5,-5,5,2,0,-1,1,-4
1448711455256214,-3,-5,-16,0,1,0,0,2
1448711455256713,-6,-9,21,1,-2,-1,-6,-3
1448711455256713,-3,-3,-1,0,-1,-2,-1,-1
1448711455270223,-1,-9,-2,1,-2,0,0,-1
1448711455270223,-1,0,11,3,1,0,4,0
1448711455271224,1,3,3,-2,-3,-1,-8,-6
1448711455271224,-7,-5,-5,-1,-1,0,-1,-4
1448711455294239,-1,1,7,0,0,-4,-3,0
1448711455294239,-4,20,-6,0,0,2,-1,-3
1448711455294740,4,3,12,0,2,0,2,2
1448711455294740,1,-12,-24,-3,-1,-1,2,2
1448711455315755,1,22,18,0,0,1,0,-1
1448711455315755,-2,-10,1,-3,-3,-4,-3,-2
1448711455316756,-10,7,-52,-9,-2,-2,1,-1
1448711455316756,5,22,14,2,0,-1,-3,-1
1448711455330277,2,1,12,1,-2,-4,3,12
1448711455330277,1,8,-33,-7,-4,-3,-8,-17
1448711455331278,5,4,23,2,-1,-1,1,-1
1448711455331278,-1,-15,1,-4,-1,0,0,-3
1448711455353281,-3,-5,-5,0,0,1,1,0
1448711455353281,-2,-4,3,-1,-1,-2,-2,7
1448711455354282,3,2,16,3,1,0,1,1
1448711455354282,-7,-26,-26,-4,0,2,-2,2
1448711455375798,0,-5,2,-1,-1,-3,-3,-1
1448711455375798,-3,-11,-20,-3,-3,-3,2,-1
1448711455376798,-1,-4,7,1,-2,-1,-2,3
1448711455376798,3,-10,14,1,-2,-7,1,-4
1448711455390320,-2,8,-18,-2,-1,-1,-3,-4
1448711455390320,1,9,3,3,2,2,1,-6
1448711455391308,-3,-21,5,1,-1,0,1,3
1448711455391308,9,3,-7,-2,0,0,-2,2
1448711455413336,-2,15,28,-3,-2,1,-1,-6
1448711455413336,-4,-44,-10,-2,-4,-3,-4,0
1448711455414337,-3,4,2,-11,-3,-2,-1,-1
1448711455414337,-1,27,20,6,0,0,-1,2
1448711455435842,-1,-9,-34,-1,3,2,2,-4
1448711455435842,-2,-11,22,1,0,-1,1,3
1448711455437342,5,6,-18,3,-1,-1,1,-1
1448711455437342,-6,-18,-29,-6,-3,-3,-4,-3
1448711455449863,0,5,45,-3,-3,-2,-1,0
1448711455449863,-4,7,20,5,0,1,-3,-3
1448711455466362,-4,-11,-30,-5,-2,-1,2,-4
1448711455466362,2,15,29,4,1,2,2,20
1448711455473367,-5,-25,-69,-8,-5,-3,0,-15
1448711455473367,1,7,25,2,0,0,-3,-7
1448711455475369,0,0,-7,0,0,1,0,-5
1448711455475369,-8,-26,-10,-3,-2,-1,0,-6
1448711455495882,-1,12,26,0,3,0,-1,8
1448711455495882,-1,-3,-31,-4,-1,-2,0,3
1448711455497384,1,12,7,5,4,1,1,-1
1448711455497384,6,9,28,7,1,1,1,2
1448711455509391,-5,-9,-2,-4,-2,-1,-3,-3
1448711455509391,-3,-1,-8,-4,-1,-1,0,-1
1448711455519399,0,2,31,2,-1,-1,-4,2
1448711455519399,-6,-6,-35,-10,-5,-2,-5,-5
1448711455533408,4,0,4,8,0,-1,-2,1
1448711455533408,1,-20,-24,-4,0,-1,0,0
1448711455534910,-10,-4,21,-2,-2,-2,-3,-3
1448711455534910,-2,-7,-3,-5,0,0,0,-6
1448711455555937,-3,-15,-13,-3,-2,-3,-2,-3
1448711455555937,6,41,19,11,4,4,7,23
1448711455557438,-1,-20,29,4,-3,-3,-8,-22
1448711455557438,-9,-9,-50,-19,-5,-3,-7,-13
1448711455569447,1,-2,-7,2,0,0,0,1
1448711455569447,-3,-18,12,3,-1,-2,0,-5
1448711455578441,4,-10,0,-7,2,1,1,5
1448711455578441,-2,24,17,3,2,3,0,-1
1448711455593469,1,5,0,7,1,-2,-1,1
1448711455593469,1,-1,1,1,2,-1,-1,-1
1448711455594970,0,20,-11,5,5,1,1,3
1448711455594970,0,-16,3,0,-1,-2,0,-1
1448711455615979,0,12,-6,-10,-2,-1,0,3
1448711455615979,-4,5,22,-2,-8,-2,-1,-3
1448711455618468,-2,-15,-31,-5,-7,-3,0,1
1448711455618468,2,3,7,8,5,2,1,3
1448711455629489,-2,-1,-3,-11,-10,1,-2,-2
1448711455629489,2,6,-25,2,-3,-2,-7,-4
1448711455638484,-2,-2,-7,-7,6,2,2,1
1448711455638484,5,10,7,1,0,-2,1,4
1448711455653506,-1,-10,-4,24,9,1,-5,-3
1448711455653506,-2,-2,-8,-11,-2,-2,-1,-4
1448711455655003,0,1,-2,-1,-7,-2,0,2
1448711455655003,-2,9,11,-2,-2,1,4,0
1448711455676022,1,-2,40,3,3,1,1,-1
1448711455676022,-7,-13,-64,-23,-9,-4,-3,2
1448711455677523,0,-2,1,2,-2,-2,-15,-6
1448711455677523,0,4,2,-1,-4,-9,2,-23
1448711455689520,0,4,8,-5,-2,3,12,-1
1448711455689520,-6,6,29,11,4,0,0,-6
1448711455699527,-3,0,-17,0,2,5,6,6
1448711455699527,-1,-9,-15,1,-3,-1,-9,5
1448711455713537,0,1,-9,-7,-1,-4,-6,-6
1448711455713537,7,6,33,7,2,1,3,4
1448711455715038,1,5,-1,3,2,2,-3,3
1448711455715038,-8,-19,-1,-4,-8,-2,-5,-3
1448711455736065,-6,-23,-10,6,4,-2,-4,-1
1448711455736065,2,7,-18,0,4,2,3,3
1448711455737567,4,28,32,6,-2,-1,1,1
1448711455737567,2,-8,3,3,3,2,4,0
1448711455749563,2,7,-11,-13,-7,-3,-1,2
1448711455749563,-1,-17,3,-6,-2,-3,-7,-5
1448711455758569,-8,-10,-5,-1,-1,-1,4,-7
1448711455758569,-5,5,6,-3,-2,3,-27,2
1448711455773580,-5,2,8,-1,-3,-10,5,-7
1448711455773580,-1,1,-21,-7,-4,-3,21,3
1448711455775081,-7,-13,-21,-5,-3,-4,-4,-1
1448711455775081,-2,1,1,-9,0,1,8,22
1448711455796094,-1,4,24,1,-2,2,-5,-9
1448711455796094,-4,-20,5,2,-1,-1,-17,-36
1448711455797595,-5,1,-33,-2,-6,-2,11,-4
1448711455797595,-1,17,72,-3,-2,-2,-5,-5
1448711455809605,1,-3,-49,16,8,5,-3,6
1448711455809605,1,3,-5,-8,-1,-1,1,9
1448711455818611,-5,6,5,0,-2,-3,-7,-6
1448711455818611,1,2,-7,18,9,1,3,-3
1448711455834122,0,-2,-21,-17,-7,-4,-2,4
1448711455834122,1,7,18,6,1,3,3,4
1448711455835623,3,1,-6,-8,-1,0,-2,3
1448711455835623,1,24,20,1,-3,-3,-2,-3
1448711455856137,-8,-22,-4,-8,-7,-3,-7,-3
1448711455856137,-2,-11,-11,-2,-3,-1,8,0
1448711455857639,7,3,21,-2,-2,-1,-7,-2
1448711455857639,-7,-11,-24,3,-2,-5,11,-2
1448711455878654,-1,17,14,0,1,7,6,2
1448711455878654,-1,7,15,5,-1,-2,-9,2
1448711455880155,-1,2,-12,-8,-3,-4,3,3
1448711455880155,3,-7,-10,2,2,-1,-4,-4
1448711455894165,-6,-8,14,-5,-2,-1,-9,-6
1448711455894165,4,-5,-30,2,0,-1,4,5
1448711455895665,-7,-8,21,0,-1,-1,-1,-3
1448711455895665,6,3,-20,-3,-1,-1,-1,-2
1448711455916180,-2,-7,12,-13,-8,-3,-2,-1
1448711455916180,1,8,0,5,6,2,-2,0
1448711455917680,2,-8,3,14,4,1,-3,1
1448711455917680,8,-7,-5,4,4,0,1,-1
1448711455938695,3,6,3,10,6,2,4,2
1448711455938695,-1,4,-1,-3,-3,-1,-6,-3
1448711455940197,-1,-4,2,-5,-3,-3,2,2
1448711455940197,-2,-2,-7,-15,-9,-4,-2,-1
1448711455953706,6,-5,1,10,4,3,1,3
1448711455953706,-9,1,-11,-4,-2,1,-3,-6
1448711455955208,-5,-16,6,3,2,-3,-7,-5
1448711455955208,2,11,-15,-3,-6,-7,5,1
1448711455976222,1,10,-25,-6,-5,-2,2,1
1448711455976222,-3,2,30,-3,-1,1,-1,2
1448711455977723,-7,-10,-19,-12,-4,-2,7,-2
1448711455977723,-14,-4,-17,1,1,3,0,-4
1448711455998755,0,15,9,6,4,-2,-9,-6
1448711455998755,-1,6,-2,-4,-3,-5,-2,1
1448711456000251,5,2,34,0,2,2,-2,-1
1448711456000251,-1,2,-22,-15,-7,-2,-2,-1
1448711456012747,7,14,-1,15,5,4,8,5
1448711456012747,6,-10,-5,-1,-1,0,-2,1
1448711456019752,-1,2,-1,3,0,0,-1,-2
1448711456019752,-3,2,10,1,1,2,2,2
1448711456036265,-2,-12,-18,-12,-5,-3,-1,-1
1448711456036265,7,-3,6,-1,-3,2,3,4
1448711456037766,0,-8,-40,-7,-2,4,8,3
1448711456037766,-13,-15,8,-2,1,-3,-6,-8
1448711456058281,-9,-4,-18,-6,-7,-7,-10,-10
1448711456058281,-2,-9,13,-1,-5,-7,-16,-5
1448711456060283,13,2,-9,0,9,5,6,10
1448711456060283,1,16,35,0,-8,-1,-3,-1
1448711456072803,-12,-24,-27,-5,4,-6,-4,-8
1448711456072803,-11,1,-15,3,2,-2,-8,-8
1448711456079807,4,8,5,-8,-16,-4,-1,-1
1448711456079807,9,-4,-14,16,16,7,6,9
1448711456095807,1,-6,32,-2,1,2,6,3
1448711456095807,-3,-15,-25,-12,-8,-3,8,3
1448711456097809,3,16,11,13,8,0,-3,1
1448711456097809,6,-2,0,5,0,1,8,4
1448711456118323,0,-1,9,6,-6,-1,4,5
1448711456118323,2,9,-7,7,11,-1,-6,-1
1448711456120324,-14,-10,2,-4,-5,-7,-10,-12
1448711456120324,3,6,-33,-10,-4,-6,-6,-5
1448711456132832,11,16,5,-3,-7,-3,6,8
1448711456132832,18,9,9,-7,0,6,12,16
1448711456139837,-16,-32,6,2,-13,-6,-16,-16
1448711456139837,-20,-8,-8,5,14,-4,-21,-24
1448711456155850,-22,-29,-6,-19,-8,-8,-27,-27
1448711456155850,-9,-7,-4,16,2,-3,1,0
1448711456157851,15,16,0,-13,-6,4,21,20
1448711456157851,12,-13,27,34,6,5,9,9
1448711456178366,-3,0,-16,-7,-2,-1,2,6
1448711456178366,-3,-4,-8,-14,6,-1,-4,-3
1448711456179865,1,25,-9,14,13,3,8,4
1448711456179865,8,17,23,13,-8,1,4,7
1448711456192375,-4,-13,-11,4,13,1,-4,-4
1448711456192375,2,-42,6,-14,-10,6,23,19
1448711456201381,-10,4,-9,6,1,0,2,-7
1448711456201381,-24,-7,-19,-43,-15,-19,-43,-29
1448711456215892,14,14,-3,8,-9,-6,-12,-8
1448711456215892,5,2,5,10,3,9,18,13
1448711456217894,1,24,4,-11,-5,-4,-13,-6
1448711456217894,-16,-33,10,2,-11,-8,4,-2
1448711456238408,2,9,10,-12,-10,3,20,15
1448711456238408,-18,-8,-24,-28,-1,-6,-22,-20
1448711456239908,7,-35,9,20,6,4,0,-4
1448711456239908,21,24,-24,-1,7,1,-10,6
1448711456251916,33,-7,28,24,1,2,19,26
1448711456251916,-2,41,23,31,-1,3,1,-5
1448711456261424,-12,42,11,-7,2,-2,-8,0
1448711456261424,-37,-91,-44,-26,-2,-7,-16,-29
1448711456275934,0,21,17,24,15,7,0,-3
1448711456275934,37,37,-6,-3,-2,-5,14,17
1448711456277435,-19,-4,-7,12,-6,-5,-4,6
1448711456277435,8,36,26,-41,-27,6,31,24
1448711456298451,-15,-21,-25,7,16,11,7,0
1448711456298451,-6,-28,22,21,5,-7,-24,-33
1448711456299951,24,-16,-20,-21,-11,-21,-40,-16
1448711456299951,36,29,-10,-17,0,7,34,43
1448711456312960,-29,5,47,-19,-30,-4,-11,-11
1448711456312960,-11,25,-42,-15,3,-3,-43,-41
1448711456319465,24,-40,-18,20,19,11,10,-1
1448711456319465,21,63,21,6,9,12,48,38
1448711456335976,20,19,-10,-7,-10,-13,0,8
1448711456335976,-37,-25,4,-28,-10,-9,-47,-43
1448711456337477,-5,45,42,14,-7,2,-5,-10
1448711456337477,-6,10,-25,-14,7,4,11,-2
1448711456358492,30,-34,55,49,12,14,46,37
1448711456358492,-52,-64,-43,-32,4,0,14,13
1448711456359993,6,79,-26,-23,1,-17,-41,-28
1448711456359993,15,-61,27,18,-10,6,19,31
1448711456381009,2,46,-42,-51,-1,5,42,38
1448711456381009,-19,28,16,30,-4,-14,-35,-29
1448711456382510,-80,-53,44,-10,-19,-7,-25,-42
1448711456382510,-27,-18,-77,11,23,-1,-32,-46
1448711456396020,-5,19,12,-17,-16,-5,34,38
1448711456396020,77,48,-2,6,9,0,-30,12
1448711456397521,-43,-62,-41,6,-5,-4,4,-13
1448711456397521,-38,-13,35,-6,-35,-11,-20,-25
1448711456418535,-25,-31,-10,-10,4,-15,-51,-55
1448711456418535,42,12,36,38,6,11,62,54
1448711456420037,0,-10,-25,-46,-9,5,18,11
1448711456420037,16,7,4,18,27,6,8,24
1448711456432044,24,8,-10,13,-3,6,2,-6
1448711456432044,4,-12,10,9,4,-2,15,12
1448711456441063,74,0,-10,1,-5,-15,-27,6
1448711456441063,-64,6,26,1,-5,1,4,-4
1448711456456073,-18,25,-23,-5,11,5,-11,-26
1448711456456073,15,34,13,-1,-8,-7,-13,-14
1448711456457575,-10,46,20,25,8,16,48,42
1448711456457575,43,10,16,-63,-32,-14,-37,-16
1448711456478589,12,2,-14,46,19,-7,-39,-27
1448711456478589,-44,-17,16,5,-21,6,30,6
1448711456480090,-2,-35,-6,-33,8,21,75,60
1448711456480090,-26,-17,-9,56,4,-28,-82,-66
1448711456492087,33,9,-19,-69,-9,-12,-43,-27
1448711456492087,-9,-14,8,28,9,0,14,2
1448711456501093,-14,-25,-49,-30,-6,-8,-15,-20
1448711456501093,14,59,99,17,-16,16,35,23
1448711456516116,-1,35,-14,29,56,14,-5,-5
1448711456516116,25,-35,30,-4,-12,15,50,45
1448711456517604,2,-26,-58,-7,25,21,51,43
1448711456517604,74,15,13,-28,8,9,25,26
1448711456538620,-74,-27,15,71,-3,-28,-54,-48
1448711456538620,10,-28,-95,-119,-37,-23,-25,-16
1448711456540121,-53,-31,16,-10,-14,-6,-36,-48
1448711456540121,9,-5,-19,58,23,-4,-14,0
1448711456561148,8,6,41,-38,-15,17,46,74
1448711456561148,76,84,65,85,9,15,10,-34
1448711456562649,-58,-3,-14,17,-9,-9,-38,-13
1448711456562649,-51,-48,-26,-18,-21,-58,-100,-92
1448711456576158,23,-65,-42,-20,9,-12,-11,-19
1448711456576158,27,-21,58,21,-31,9,32,35
1448711456577648,92,64,-44,37,56,32,70,69
1448711456577648,31,-7,56,18,-23,20,76,65
1448711456598674,4,-22,-57,-51,9,-1,-6,15
1448711456598674,-58,-24,-14,-34,27,2,5,14
1448711456600175,37,63,127,100,-20,-3,6,-4
1448711456600175,30,-24,-123,-76,12,22,39,47
1448711456612171,-72,-32,25,14,-36,-20,-8,-30
1448711456612171,-8,48,-10,-36,20,-8,-67,-63
1448711456621179,-51,-49,7,21,1,-18,-51,-26
1448711456621179,-18,-51,7,30,-16,-19,-26,-34
1448711456636201,46,26,31,-27,-26,18,57,39
1448711456636201,57,36,-51,-58,24,22,85,79
1448711456637691,-16,30,9,-14,-22,-41,-95,-71
1448711456637691,-4,-18,30,-1,-24,-5,-14,-31
1448711456658705,-75,-8,-75,2,45,-11,-36,-55
1448711456658705,-71,3,60,65,-30,-25,-47,-15
1448711456660206,20,8,-66,-115,-3,22,88,55
1448711456660206,-70,69,7,75,7,-4,-30,-21
1448711456681220,-17,-86,-33,-2,-23,-21,-75,-63
1448711456681220,36,-23,48,96,60,5,-12,-7
1448711456682722,47,18,-18,-70,-10,4,15,26
1448711456682722,16,-54,7,-19,18,27,73,51
1448711456696231,46,26,36,-30,-31,30,100,84
1448711456696231,31,76,10,21,-12,-11,-10,-3
1448711456697732,64,-43,39,82,54,25,28,49
1448711456697732,-99,-45,-60,-33,18,-1,-3,-51
1448711456718746,41,44,70,42,-33,-30,-56,-12
1448711456718746,-27,-44,-88,-128,-52,-26,-80,-51
1448711456720247,-53,7,82,-33,-70,-28,-44,-88
1448711456720247,62,14,-31,22,45,24,73,68
1448711456732256,-59,-24,5,71,45,22,-25,-44
1448711456732256,-54,43,90,61,-38,-18,-35,-9
1448711456741263,-70,-80,-103,-83,9,-12,3,19
1448711456741263,49,66,5,31,29,27,20,20
1448711456756286,38,9,11,10,-24,-3,47,30
1448711456756286,-10,-34,-17,1,15,9,-2,1
1448711456757787,31,6,54,31,2,-3,-35,-22
1448711456757787,66,15,-49,-73,4,24,64,50
1448711456778789,7,-48,-8,-80,-32,-22,-27,-8
1448711456778789,-88,-31,-27,58,30,9,-34,-34
1448711456780290,103,-36,46,117,22,-1,32,26
1448711456780290,-114,22,-23,-20,-3,-14,-67,-61
1448711456800804,9,2,-13,-10,1,21,66,52
1448711456800804,-58,-111,-42,-61,-52,-21,23,-1
1448711456802807,-10,28,-29,-93,-31,-22,-66,-33
1448711456802807,127,57,66,110,25,0,-6,9
1448711456815815,46,35,80,34,-89,-29,-76,-73
1448711456815815,61,36,7,36,59,73,122,105
1448711456818317,9,13,29,31,-13,-3,12,53
1448711456818317,-40,-8,6,-14,4,-23,-113,-89
1448711456838331,-128,-68,-60,-83,-31,-52,-82,-117
1448711456838331,6,23,12,80,67,14,34,-5
1448711456840332,102,127,98,26,-52,32,88,62
1448711456840332,59,17,-66,-119,23,16,-47,-3
1448711456860860,17,-31,20,102,89,0,-6,27
1448711456860860,-10,10,25,18,31,12,10,9
1448711456862861,-19,-20,2,108,56,42,105,87
1448711456862861,-27,-86,23,25,-95,-13,52,34
1448711456875870,64,-45,-23,-109,-78,-48,-56,-64
1448711456875870,-39,-71,-45,5,-22,-55,-76,-53
1448711456882375,53,13,45,79,2,14,12,-2
1448711456882375,43,73,43,-60,-33,29,100,87
1448711456898373,27,127,35,121,78,40,11,-7
1448711456898373,11,45,8,-82,-45,3,49,69
1448711456900375,-92,-21,-116,-25,11,-55,-128,-103
1448711456900375,-96,13,2,64,14,-30,-17,-51
1448711456913386,-23,-70,-22,-72,41,46,115,101
1448711456913386,116,89,81,-25,-65,-26,-91,-76
1448711456915387,88,32,-50,31,52,34,42,58
1448711456915387,127,94,-5,63,75,19,43,94
1448711456927395,-101,-64,-26,15,-5,-17,-32,-25
1448711456927395,69,81,94,-33,-93,-3,28,-8
1448711456936413,-56,-43,-91,-3,67,52,82,61
1448711456936413,-5,-3,54,-67,-25,-46,-128,-108
1448711456949912,34,-26,21,63,22,-4,-18,16
1448711456949912,-1,-58,-18,58,-28,-28,-33,-31
1448711456959430,-59,-42,24,-128,-50,-22,-49,-89
1448711456959430,63,-37,9,35,40,-4,-56,-62
1448711456973428,24,123,87,22,-44,45,114,103
1448711456973428,110,-52,-128,-101,81,18,57,67
1448711456975429,-23,-59,47,-41,-80,-41,-12,6
1448711456975429,-47,-111,-21,-100,-35,-18,-42,-42
1448711456987438,87,117,96,68,66,9,6,20
1448711456987438,-113,-101,-85,-7,57,13,4,-27
1448711456996444,32,2,-9,-10,4,12,34,30
1448711456996444,-121,-27,-14,9,-7,-9,17,15
1448711457009453,109,10,-24,-78,-62,-9,-1,46
1448711457009453,4,70,48,0,-78,-12,41,-4
1448711457018959,122,89,12,-13,41,12,-49,-46
1448711457018959,59,-93,32,111,19,-4,14,40
1448711457033470,-122,-101,-34,16,-26,-31,-60,-68
1448711457033470,-17,-52,-20,-60,-9,-7,-16,10
1448711457034972,-1,-48,-4,-28,-34,-30,-41,-44
1448711457034972,75,30,33,-9,1,9,12,20
1448711457054485,127,127,90,62,25,48,127,127
1448711457054485,-124,-83,-58,-91,-31,10,-1,-27
1448711457063490,-120,-92,-58,-26,-33,-66,-105,-92
1448711457063490,71,102,56,118,61,34,82,93
1448711457078501,-1,-13,38,35,-12,-7,3,3
1448711457078501,43,-4,-7,80,55,20,13,13
1448711457080003,81,47,27,65,34,22,56,72
1448711457080003,-128,-28,13,-41,-40,-12,-12,-62
1448711457101016,-73,-67,-96,-128,-33,-8,-40,-67
1448711457101016,127,127,58,57,18,14,14,65
1448711457102519,101,34,47,-33,-28,-10,8,29
1448711457102519,-47,-96,-92,-63,-27,-36,-73,-84
1448711457115527,109,106,69,36,-44,12,42,68
1448711457115527,-70,6,-55,-10,13,13,17,-11
1448711457122033,-89,-83,12,78,-4,-50,-87,-81
1448711457122033,106,50,19,10,41,18,50,55
1448711457129538,-61,10,34,103,84,22,16,-8
1448711457129538,60,16,-20,-13,16,8,28,44
1448711457138544,-62,23,-28,-95,-23,10,11,-9
1448711457138544,-19,-76,4,25,-60,-21,-29,-31
1448711457170566,108,48,0,-23,24,20,23,33
1448711457170566,-74,-79,-45,3,20,-20,-45,-72
1448711457172067,-45,-47,9,-4,-4,8,-4,-18
1448711457172067,87,81,-10,-41,-42,7,73,96
1448711457184576,66,71,-24,-50,-11,14,70,74
1448711457184576,-11,-10,9,-77,-26,-34,-80,-71
1448711457186078,-66,-19,-29,25,-8,-31,-72,-74
1448711457186078,-52,57,8,32,28,6,17,12
1448711457192582,55,71,-8,25,16,8,13,13
1448711457192582,-45,33,26,17,-20,-20,3,13
1448711457193083,55,71,-8,25,16,8,13,13
1448711457193083,-45,33,26,17,-20,-20,3,13
1448711457194084,109,10,-24,-78,-62,-9,-1,46
1448711457194084,4,70,48,0,-78,-12,41,-4
1448711457198086,122,89,12,-13,41,12,-49,-46
1448711457198086,59,-93,32,111,19,-4,14,40
1448711457199087,-122,-101,-34,16,-26,-31,-60,-68
1448711457199087,-17,-52,-20,-60,-9,-7,-16,10
1448711457223104,108,48,0,-23,24,20,23,33
1448711457223104,-74,-79,-45,3,20,-20,-45,-72
1448711457224605,-45,-47,9,-4,-4,8,-4,-18
1448711457224605,87,81,-10,-41,-42,7,73,96
1448711457230110,66,71,-24,-50,-11,14,70,74
1448711457230110,-11,-10,9,-77,-26,-34,-80,-71
1448711457231609,-66,-19,-29,25,-8,-31,-72,-74
1448711457231609,-52,57,8,32,28,6,17,12
1448711457232610,55,71,-8,25,16,8,13,13
1448711457232610,-45,33,26,17,-20,-20,3,13
1448711457236113,-67,35,-54,17,10,-12,-33,-36
1448711457236113,-19,70,-7,73,18,-2,26,29
1448711457237614,25,-11,33,-33,-58,-15,-21,-28
1448711457237614,-9,81,-28,-121,-47,0,-11,2
1448711457249623,45,13,3,19,28,3,15,13
1448711457249623,-83,53,38,9,-7,1,-36,-40
1448711457258629,-39,-16,-5,5,-10,-9,2,-7
1448711457258629,47,35,4,-38,-37,-21,-78,-69
1448711457264633,24,45,17,-12,-3,-25,-43,-8
1448711457264633,57,36,-16,22,-3,-5,28,47
1448711457273640,-11,30,-22,-41,9,10,27,3
1448711457273640,33,15,35,13,-35,-8,-1,-2
1448711457287150,-100,62,4,-58,28,28,30,-2
1448711457287150,-3,113,-30,62,80,29,38,33
1448711457296156,46,127,11,94,74,18,9,15
1448711457296156,-40,-49,-24,-2,22,2,9,4
1448711457309665,14,-32,-36,-82,-42,-7,-14,-1
1448711457309665,8,-117,5,-32,-67,-28,-16,-10
1448711457318671,19,-75,0,-9,15,14,2,4
1448711457318671,29,-6,34,80,28,9,31,29
1448711457324675,58,-30,-30,-24,-4,5,42,59
1448711457324675,-51,-50,9,-12,-26,-11,-48,-76
1448711457341188,-46,-2,14,-15,-21,7,26,30
1448711457341188,-88,-71,-14,-31,-18,-30,-78,-73
1448711457347191,-54,-87,-6,9,-10,6,34,31
1448711457347191,55,-46,8,-13,-17,5,-4,15
1448711457356216,-56,-55,15,14,-12,-48,-56,-66
1448711457356216,-20,34,-1,-20,-2,-2,19,8
1448711457369719,50,-7,2,-14,-2,-2,-31,-19
1448711457369719,77,66,31,37,24,32,63,63
1448711457378714,-39,-26,-31,8,53,41,44,26
1448711457378714,-24,-8,31,53,-11,-6,-5,-11
1448711457392224,18,-14,-53,-10,28,10,-5,0
1448711457392224,12,-10,21,40,17,3,9,22
1448711457401229,33,34,20,-62,-54,-13,-20,-9
1448711457401229,1,19,-40,-35,17,8,16,12
1448711457407235,16,21,9,14,-18,-14,-17,-23
1448711457407235,46,-22,-12,-26,-13,0,-1,10
1448711457416241,-30,17,-2,3,4,2,15,8
1448711457416241,-16,23,6,-14,-6,20,60,60
1448711457429750,-45,-52,-7,-20,-18,-15,-35,-53
1448711457429750,-59,-50,-8,3,2,-16,-60,-80
1448711457438757,21,15,14,-4,-18,-19,-16,13
1448711457438757,-3,-17,-3,-1,8,12,-10,-12
1448711457444762,36,14,-13,3,-12,-9,-15,3
1448711457444762,51,10,15,-26,-22,-17,22,38
1448711457459772,27,19,10,53,30,25,15,-4
1448711457459772,-37,-9,3,20,20,7,8,5
1448711457467278,-23,-4,-5,17,18,3,-3,-4
1448711457467278,23,36,-17,-42,-3,8,15,15
1448711457476283,14,19,9,7,-12,-5,3,17
1448711457476283,3,17,-6,5,12,3,-7,-9
1448711457489793,-12,1,17,21,-3,-8,-13,-17
1448711457489793,5,19,-4,-19,-22,-5,2,2
1448711457499299,27,-12,-12,-17,-8,-5,2,6
1448711457499299,-46,24,10,-15,-15,-5,0,-13
1448711457520814,-7,2,-1,-9,-10,0,20,0
1448711457520814,-32,-13,4,7,4,4,4,24
1448711457522828,13,-29,-16,-15,-18,-6,-25,-31
1448711457522828,-43,-21,15,-36,-37,-22,-34,-54
1448711457527331,-63,-62,-24,25,52,5,-5,-30
1448711457527331,9,21,5,43,17,5,-8,-9
1448711457543842,44,5,32,2,-18,-15,-13,21
1448711457543842,19,5,-33,-36,-10,7,6,12
1448711457549834,-35,-17,-1,21,-6,2,-5,-3
1448711457549834,1,-16,2,22,20,5,22,13
1448711457565358,10,17,12,21,24,7,17,13
1448711457565358,22,5,-1,6,3,2,-8,-3
1448711457566359,3,-3,3,-34,-27,-3,-7,-3
1448711457566359,6,5,0,-2,8,6,14,2
1448711457579868,-8,-2,-6,11,-2,5,-7,-2
1448711457579868,-12,-24,-2,-5,-4,-19,-2,-3
1448711457587362,21,11,-12,-3,-7,-8,-4,2
1448711457587362,-10,4,4,-25,-25,-4,-21,-13
1448711457596369,-7,-4,-12,-13,5,1,17,1
1448711457596369,33,18,-4,19,-2,8,9,9
1448711457609878,22,20,16,-32,0,-9,-15,-1
1448711457609878,-32,26,25,67,22,2,-2,-13
1448711457618885,-32,-9,-36,9,7,0,3,-2
1448711457618885,-10,-40,-5,9,7,-2,-16,-17
1448711457624889,-4,-9,-2,10,-14,-9,-11,-9
1448711457624889,-10,-62,-7,-32,-2,-5,5,3
1448711457639898,21,16,6,-3,-2,11,2,13
1448711457639898,15,16,7,1,3,-2,4,4
1448711457647404,9,12,13,3,5,6,3,1
1448711457647404,-2,-6,2,-1,8,2,6,3
1448711457656411,0,5,-12,3,-4,-6,-1,0
1448711457656411,2,-3,-18,-26,-14,-9,0,10
1448711457669921,-3,-4,-7,-3,0,15,-2,-11
1448711457669921,-4,12,3,-2,-9,-28,-11,7
1448711457678927,1,-6,9,-8,-9,-2,15,22
1448711457678927,-1,24,18,4,2,1,5,-21
1448711457684930,-22,-14,-31,-2,6,3,-13,-4
1448711457684930,-1,19,18,4,-4,2,-9,-8
1448711457701442,2,-2,-11,-17,-7,-7,-5,-2
1448711457701442,4,-2,4,2,1,2,3,9
1448711457707445,-1,9,19,-3,-5,1,-2,1
1448711457707445,-2,-9,-11,2,12,6,2,-5
1448711457715952,-2,-21,0,3,10,2,5,-3
1448711457715952,4,-14,20,22,7,1,1,1
1448711457729475,-6,-16,-43,-20,-22,-11,-8,-11
1448711457729475,8,-21,-12,-12,-10,5,-2,1
1448711457738468,5,19,2,1,9,8,7,-4
1448711457738468,2,5,8,18,5,-7,-11,0
1448711457744487,-3,-11,23,6,5,-2,-1,5
1448711457744487,-2,1,-22,-14,-8,-4,2,1
1448711457761485,-3,4,-14,-5,-8,3,-5,-10
1448711457761485,3,11,-5,-11,-3,0,0,0
1448711457766989,3,1,-5,3,1,-5,10,5
1448711457766989,-2,17,6,4,-3,6,-10,-3
1448711457775996,3,-7,4,-2,-5,-12,0,-5
1448711457775996,-2,11,-6,-8,-5,0,1,3
1448711457798511,4,2,11,9,9,-3,-1,2
1448711457798511,5,-12,-34,-11,-9,-2,-2,-6
1448711457800011,-6,14,11,-2,-4,1,-4,-3
1448711457800011,1,4,-10,2,3,2,3,2
1448711457804514,-6,4,15,-2,-6,0,-1,-2
1448711457804514,0,8,10,-4,-7,2,2,-1
1448711457819526,0,-4,3,-5,13,0,-2,-1
1448711457819526,-2,5,16,9,-3,-5,3,0
1448711457827032,-1,1,-8,-11,-5,-4,-4,-1
1448711457827032,-3,4,-15,2,5,-7,-1,-1
1448711457836038,-4,0,10,-16,-10,0,-2,-4
1448711457836038,0,5,4,28,15,5,0,0
1448711457849546,2,-3,7,4,3,-2,0,1
1448711457849546,-4,1,20,-3,-6,-9,-2,0
1448711457858553,0,2,3,-3,-8,-2,0,-1
1448711457858553,1,-12,-26,-23,-10,-4,-3,-1
1448711457873063,-3,-1,-1,4,-3,2,2,-3
1448711457873063,-1,-5,-1,0,1,0,-1,-2
1448711457888074,-1,-6,22,12,4,-3,-4,-3
1448711457888074,0,-13,-11,0,-1,0,-5,-1
1448711457888574,-1,-7,-25,-1,2,3,-1,1
1448711457888574,-5,-11,8,-5,-1,0,1,0
1448711457896079,2,14,-10,2,2,0,2,1
1448711457896079,-8,2,7,-2,-2,1,-2,-2
1448711457909602,4,4,14,4,1,-3,-5,-3
1448711457909602,1,6,7,-2,1,3,2,1
1448711457918595,-3,-10,-1,11,-3,-5,-6,-1
1448711457918595,-4,2,-19,-8,0,-3,4,1
1448711457924612,-4,1,7,-5,-1,1,-3,-2
1448711457924612,-1,1,-4,-2,-2,-1,1,-2
1448711457939623,0,1,4,12,3,1,0,-1
1448711457939623,1,-1,2,-3,0,-4,-2,-1
1448711457947115,-4,-9,1,-1,-1,1,1,0
1448711457947115,0,8,13,3,1,5,6,1
1448711457956122,-3,-8,-4,1,0,-3,-6,-3
1448711457956122,1,-1,4,-5,-6,-2,-7,-1
1448711457978650,-5,-11,-31,0,-2,-6,-3,-4
1448711457978650,2,-5,-18,-3,-2,-4,-2,1
1448711457980152,0,4,6,-5,-1,1,2,-3
1448711457980152,3,11,2,1,-1,0,2,0
1448711457984642,1,-11,-16,-7,-2,0,-2,-1
1448711457984642,-5,4,7,-2,1,-1,-2,-3
1448711457999654,0,6,-6,3,-1,2,-1,2
1448711457999654,-1,1,18,-1,3,0,-2,-2
1448711458007159,2,22,9,-6,-1,-3,-1,2
1448711458007159,3,-5,-10,0,-5,-4,-2,-4
1448711458016666,-14,-32,-3,-12,-7,-8,-2,-6
1448711458016666,-5,-2,-7,7,1,3,1,-3
1448711458038693,-1,-2,5,9,6,4,-1,-1
1448711458038693,-3,-5,-1,4,1,-1,-2,-3
1448711458040181,2,2,-5,-1,0,0,1,0
1448711458040181,0,-17,-9,0,1,-1,1,1
1448711458052703,-7,-11,-7,7,-2,-5,0,1
1448711458052703,-1,8,7,0,-1,-2,-2,1
1448711458059708,0,-5,-37,-14,-6,0,-1,1
1448711458059708,1,0,-9,-9,-8,-7,-2,4
1448711458099224,-4,1,25,-5,-2,6,-1,-2
1448711458099224,0,-9,-28,4,4,-1,1,1
1448711458101725,-3,-3,-3,0,-1,0,0,-1
1448711458101725,-1,-3,7,-1,2,3,1,-2
1448711458112734,-6,7,2,-1,-1,-8,0,-2
1448711458112734,-1,2,17,2,-3,0,-4,-3
1448711458113735,0,12,4,2,0,-3,-5,-1
1448711458113735,0,-2,-9,-4,0,-2,1,-1
1448711458119739,4,1,0,4,-3,1,1,-2
1448711458119739,-2,4,6,-14,-2,1,4,-1
1448711458128744,2,7,6,6,4,0,5,0
1448711458128744,-1,-4,-8,-9,-5,-2,-4,-3
1448711458134748,6,-2,5,2,1,0,0,1
1448711458134748,-2,-11,-18,1,-1,-5,-7,-3
1448711458143756,-2,4,-2,-1,6,5,4,-2
1448711458143756,3,4,21,-3,-5,1,1,2
1448711458166270,-3,-15,-21,-6,-2,-4,-5,-3
1448711458166270,-9,-5,-27,-1,-3,1,-2,-5
1448711458167772,-1,-5,26,-3,0,-1,-3,-1
1448711458167772,1,0,-8,9,3,-5,4,0
1448711458179793,1,8,-2,-6,-4,0,-4,1
1448711458179793,10,28,26,5,2,6,-1,2
1448711458188799,1,-1,-1,-3,0,-2,0,1
1448711458188799,-7,-18,-15,-9,-5,-2,1,-5
1448711458203296,0,25,14,0,1,-5,-6,-2
1448711458203296,2,-3,-15,-5,-3,-5,-1,2
1448711458205298,0,10,20,2,-4,5,1,0
1448711458205298,-2,-4,2,-3,-5,-7,-11,-3
1448711458226325,1,-8,-4,3,2,0,4,-2
1448711458226325,-1,-3,8,4,3,-3,-1,-1
1448711458227827,2,5,-7,-3,2,2,1,0
1448711458227827,-3,-3,-6,0,-1,-1,1,0
1448711458239835,-8,5,-3,-1,-3,1,-2,-1
1448711458239835,-3,1,25,-4,-4,-3,3,0
1448711458248841,-2,-4,-2,3,-1,0,-2,-1
1448711458248841,-2,-13,-22,-2,1,-4,0,0
1448711458263352,4,4,14,2,-2,4,2,1
1448711458263352,-4,-9,-18,-16,-6,1,-2,-2
1448711458265353,4,-3,2,14,3,-2,-1,1
1448711458265353,2,3,25,2,6,2,0,0
1448711458285868,-7,-7,-19,-1,0,-3,2,-3
1448711458285868,-3,-6,-8,-7,-7,-8,-4,-5
1448711458287858,0,0,-12,-6,-8,-1,-4,-3
1448711458287858,-2,1,9,-5,-5,-3,-5,-3
1448711458299866,0,-7,-1,0,-4,1,-3,-1
1448711458299866,0,-3,1,-3,0,0,0,-1
1448711458314877,-3,-2,6,8,5,-1,-2,0
1448711458314877,-4,-4,-34,-1,-2,-2,-2,-4
1448711458323383,-4,-7,7,-6,-4,-3,0,-1
1448711458323383,-3,-5,-6,3,2,0,-2,-4
1448711458325384,-2,-1,13,-7,-5,1,0,-2
1448711458325384,-1,-5,-25,-3,-2,-1,-3,0
1448711458345897,4,-5,-1,1,0,-3,0,0
1448711458345897,0,-1,39,3,1,-1,1,-1
1448711458347899,4,13,-45,1,0,-4,-7,-2
1448711458347899,-2,5,15,6,1,7,1,-2
1448711458359922,2,6,13,-3,-4,-6,-2,-1
1448711458359922,-6,-17,-40,-7,-4,-3,-1,-3
1448711458368928,-2,-5,4,-13,-5,-6,-3,-3
1448711458368928,0,-8,2,3,0,2,5,-1
1448711458383437,0,6,17,10,2,0,-9,-3
1448711458383437,2,2,-1,-2,1,3,-1,1
1448711458385427,0,-7,1,0,0,-1,0,-2
1448711458385427,-1,3,-8,1,-1,1,-4,-1
1448711458405955,-1,-7,7,-1,0,-2,3,0
1448711458405955,-1,1,-13,7,3,-1,-2,-1
1448711458407942,-4,-11,-15,-9,-6,-3,-2,-2
1448711458407942,2,4,22,0,0,-2,-1,-1
1448711458419949,-6,-5,-6,0,-4,0,1,-2
1448711458419949,-3,-2,-3,3,4,-3,-6,0
1448711458428457,-1,17,18,-1,0,1,2,0
1448711458428457,-2,5,5,4,5,-6,0,-1
1448711458443480,-3,-10,-53,-11,-4,0,2,-3
1448711458443480,2,-4,-9,1,-3,1,-1,1
1448711458444980,-4,-17,5,-3,-2,-2,-1,-2
1448711458444980,-2,1,-1,-3,-5,0,-4,-2
1448711458465984,6,1,8,3,4,2,-2,1
1448711458465984,-3,0,-14,1,0,-7,-5,0
1448711458467485,0,-3,8,-2,-3,1,1,0
1448711458467485,-2,0,-4,-7,-4,-2,1,-2
1448711458479493,4,-3,-12,-1,0,-3,-5,1
1448711458479493,-4,-7,5,-5,-4,-4,-3,-3
1448711458488500,-1,-3,-5,-1,-1,4,2,-1
1448711458488500,0,-3,3,-2,2,-1,-2,-2
1448711458503509,-1,5,11,5,1,1,4,2
1448711458503509,1,3,14,2,-1,-1,1,0
1448711458506011,-3,0,-24,-2,0,-8,-2,-1
1448711458506011,-1,1,5,-5,-5,1,-4,-1
1448711458526026,-1,1,7,0,3,3,2,3
1448711458526026,1,-2,-30,-1,0,-2,-1,-1
1448711458527527,-5,1,11,-3,-2,0,1,2
1448711458527527,1,2,6,-2,2,1,2,0
1448711458539536,-2,-8,0,0,2,3,1,1
1448711458539536,3,6,26,0,0,1,-4,3
1448711458548542,1,-1,-6,0,5,-2,1,0
1448711458548542,3,16,5,0,2,0,-3,2
1448711458563552,0,0,1,-1,-2,-1,3,-1
1448711458563552,1,-24,28,4,2,2,1,-2
1448711458565053,1,-6,-41,-7,-4,0,1,1
1448711458565053,-1,-7,-22,-2,0,-1,-2,1
1448711458586069,-4,-17,1,0,3,-2,-4,-3
1448711458586069,0,5,21,1,-2,-1,-1,0
1448711458587570,4,13,1,-5,-5,1,-4,0
1448711458587570,-2,-4,2,-9,2,0,3,0
1448711458608584,2,-5,-2,14,7,2,-1,0
1448711458608584,0,2,-12,0,0,4,3,2
1448711458610085,-4,-6,15,-3,-3,1,2,-3
1448711458610085,3,-5,-15,-4,-7,0,-2,0
1448711458624094,1,14,13,-9,-5,-7,-4,-1
1448711458624094,-2,8,-3,-5,-1,-1,4,0
1448711458625596,4,4,16,4,1,0,0,2
1448711458625596,0,5,-3,-2,-1,0,1,0
1448711458646110,-3,0,-1,-3,-2,2,-1,-3
1448711458646110,0,8,15,4,1,0,0,-1
1448711458647611,2,-8,-16,0,0,-2,-1,1
1448711458647611,-1,-12,8,4,0,1,-3,-3
1448711458676144,-3,-8,-2,-6,-4,-4,0,-2
1448711458676144,2,6,-8,-4,-5,-1,-1,-3
1448711458677632,-4,-2,4,1,4,0,-7,-4
1448711458677632,-2,5,14,1,-5,-6,-1,-3
1448711458683649,-4,-5,-2,0,-1,-1,-3,-3
1448711458683649,-3,7,11,-5,-2,1,1,-1
1448711458685139,-5,-14,-21,3,4,0,0,-3
1448711458685139,-3,-8,-45,-6,-3,-4,-3,-1
1448711458706153,-3,-21,-8,-9,-4,-2,-5,-4
1448711458706153,-3,7,9,-1,1,2,-1,-2
1448711458707654,0,-19,22,11,-3,-1,-1,1
1448711458707654,-3,16,-12,-5,3,3,0,1
1448711458728681,1,5,-3,0,-2,-5,-1,-1
1448711458728681,5,0,-1,2,1,1,2,2
1448711458730170,-7,-10,-22,-7,-2,-5,-7,-4
1448711458730170,-5,2,23,9,2,1,-1,-2
1448711458742190,1,6,-5,-5,-3,-3,-1,0
1448711458742190,-3,-4,-5,0,-2,1,-4,-2
1448711458751185,1,10,11,-6,-3,-5,3,2
1448711458751185,5,-9,6,4,0,-2,-1,0
1448711458766195,1,15,9,0,2,3,-4,0
1448711458766195,-3,-11,-37,-1,-3,-3,-1,-2
1448711458767712,-4,-6,12,-1,0,2,-1,-5
1448711458767712,-1,-2,6,-8,-7,-2,0,-2
1448711458788712,1,4,22,5,1,1,0,2
1448711458788712,-2,-4,-33,2,2,-1,1,-1
1448711458790212,0,2,-16,-6,0,1,-2,-1
1448711458790212,-2,-1,0,8,4,-2,-1,0
1448711458802722,4,8,15,2,2,2,4,2
1448711458802722,-2,-3,3,-5,-5,-7,-5,-1
1448711458809725,-2,5,-4,-10,-2,-4,-1,-1
1448711458809725,-9,0,0,-2,-3,-3,-4,-3
1448711458826238,2,8,-3,3,0,0,2,0
1448711458826238,2,-1,-7,6,1,-3,1,0
1448711458827739,2,-2,0,-2,-2,3,0,0
1448711458827739,-1,0,5,0,-2,-2,0,0
1448711458849255,-2,6,-4,-2,-1,2,0,-3
1448711458849255,4,-18,8,-2,0,-5,-2,0
1448711458850755,1,3,-6,2,-3,-2,3,0
1448711458850755,-1,0,-27,-3,-4,-3,-7,-3
1448711458862764,0,3,-3,-9,-5,-3,-2,-1
1448711458862764,2,-4,-6,2,3,1,0,1
1448711458869768,1,10,16,2,2,1,-2,1
1448711458869768,-4,-20,0,-5,-5,-3,1,-1
1448711458886280,-4,-11,-16,-4,-2,-1,-3,-3
1448711458886280,-3,7,11,-2,0,3,1,0
1448711458887782,-1,-1,2,5,-2,-1,-1,-1
1448711458887782,-2,-2,4,1,4,2,0,1
1448711458908797,-1,-5,-9,0,-5,-8,-4,0
1448711458908797,-2,8,14,-3,-1,2,0,-1
1448711458910298,0,-2,-15,5,-1,-2,1,-1
1448711458910298,4,4,-5,-2,-3,2,1,3
1448711458922807,-4,2,14,3,2,-4,-3,-3
1448711458922807,-5,0,-9,-8,-2,3,6,-1
1448711458929812,-1,2,12,4,2,-5,-7,1
1448711458929812,1,-1,-2,4,1,-1,3,-2
1448711458946322,-1,-3,-6,-10,-5,-3,-5,0
1448711458946322,-1,4,15,3,-1,0,-1,-1
1448711458947825,1,2,13,0,0,3,0,0
1448711458947825,0,1,-3,0,-2,-4,4,2
1448711458976345,-3,0,-2,-1,-1,1,1,0
1448711458976345,-3,0,3,0,-1,-3,-3,-1
1448711458977846,-3,0,4,-1,-1,-2,-5,-1
1448711458977846,-2,-3,-4,-3,-3,-4,-5,-1
1448711458982849,0,-4,-8,0,1,1,4,-1
1448711458982849,-3,-4,-5,1,0,-2,-3,-1
1448711458989854,-1,1,-3,-4,-4,-1,-1,-2
1448711458989854,0,-2,14,7,1,-1,0,-1
1448711459006365,1,-2,-20,-8,-2,-2,-1,-2
1448711459006365,1,7,9,5,6,1,-1,1
1448711459007866,-10,-4,-18,10,3,-1,2,0
1448711459007866,-4,12,-12,-6,-4,4,0,-3
1448711459029381,1,16,0,1,1,-1,1,1
1448711459029381,-4,-4,-11,-10,-6,-6,-3,-1
1448711459030882,5,10,16,2,2,-2,1,1
1448711459030882,-6,-31,2,-4,-2,-6,-3,-2
1448711459051910,-8,-20,0,3,-2,2,0,-3
1448711459051910,-1,3,-3,-6,-4,-4,-4,-3
1448711459053398,-4,-5,-6,-7,-3,0,-1,-4
1448711459053398,0,0,1,0,2,-2,1,0
1448711459090926,-2,-8,-4,-3,-3,0,-6,-3
1448711459090926,-1,-5,3,1,-1,1,-1,0
1448711459097429,-1,-8,-11,-3,-2,-4,3,0
1448711459097429,-3,1,4,3,1,1,-2,-2
1448711459098430,3,0,-19,-2,-3,-1,0,-1
1448711459098430,0,0,-1,0,-3,-1,-3,-2
1448711459098930,-1,5,14,4,-1,1,-2,-2
1448711459098930,-2,-5,-4,-8,-4,-2,-3,-3
1448711459099931,-3,-2,0,6,1,-3,-2,-2
1448711459099931,0,-4,17,-3,-3,-1,-2,-3
1448711459104434,2,-1,-20,1,1,1,1,-2
1448711459104434,1,-2,5,3,0,-4,-3,-4
1448711459118444,-3,-9,-19,-12,-2,2,-1,-3
1448711459118444,-3,-10,-27,3,0,-9,-6,-2
1448711459119958,0,5,18,0,0,-1,-5,1
1448711459119958,5,6,10,3,2,5,4,1
1448711459132455,-5,21,3,0,-4,-3,1,-3
1448711459132455,-3,3,1,-8,-4,2,-2,-2
1448711459141473,2,8,-10,-7,-2,-4,2,0
1448711459141473,-1,-2,1,1,-3,-3,-4,0
1448711459155470,0,-19,4,-1,1,0,3,4
1448711459155470,7,-6,1,-2,1,1,2,4
1448711459169980,-6,-4,-9,-1,2,3,-2,-2
1448711459169980,5,5,-6,-2,0,-2,-2,2
1448711459178499,1,2,4,1,1,-1,1,0
1448711459178499,-2,0,20,7,1,0,-2,1
1448711459179987,2,-8,-1,-3,-2,2,2,0
1448711459179987,-1,-7,-7,-5,0,-2,1,0
1448711459192008,3,0,4,5,4,3,-1,0
1448711459192008,2,2,-6,2,1,0,1,0
1448711459202004,1,-2,7,-4,-1,-3,-1,1
1448711459202004,-1,5,2,-9,-4,-4,0,-2
1448711459215525,3,4,6,-4,-2,-3,-2,1
1448711459215525,-2,8,4,6,1,4,1,-2
1448711459222517,-4,-11,-2,3,4,2,0,0
1448711459222517,-7,1,-11,-2,-1,0,0,0
1448711459238530,1,-1,12,0,-6,0,-1,0
1448711459238530,-1,-7,-28,1,0,-3,-2,-2
1448711459240030,-3,-9,-9,-6,0,0,2,-1
1448711459240030,1,0,8,2,2,2,-1,0
1448711459252038,-7,-15,4,-4,-1,0,-2,-3
1448711459252038,-4,-5,-28,-9,-5,-1,2,-1
1448711459261045,-9,10,6,2,-2,-3,-2,-2
1448711459261045,6,9,1,-5,-1,1,2,1
1448711459275556,-3,3,14,6,3,-1,3,-3
1448711459275556,3,2,6,0,-1,-4,-5,1
1448711459282059,-7,-12,15,-2,-4,-1,-1,-5
1448711459282059,-2,-2,-21,-1,-1,-1,0,-1
1448711459298572,-2,-3,-14,-4,-1,-5,1,-1
1448711459298572,1,-1,-1,-1,0,2,1,3
1448711459300073,4,5,8,-10,-3,0,1,5
1448711459300073,0,0,12,9,3,0,-2,1
1448711459312082,-5,3,-13,-1,-1,1,0,-1
1448711459312082,-1,4,14,-6,-2,-1,-1,-3
1448711459321087,2,-11,-4,-7,-3,-4,-3,-4
1448711459321087,-3,0,5,5,-2,0,0,-1
1448711459335598,5,4,1,3,4,-3,0,1
1448711459335598,-1,-5,-10,-1,1,1,3,-2
1448711459342102,1,2,2,-7,-7,-1,-4,-1
1448711459342102,2,7,-4,1,3,-2,-1,1
1448711459358114,-2,-2,-2,0,-2,2,1,-3
1448711459358114,3,4,21,-1,-4,0,1,0
1448711459364618,4,-7,-3,4,0,0,1,1
1448711459364618,3,0,-24,-9,-6,-2,1,-1
1448711459381142,3,5,15,-3,-1,-4,-2,-1
1448711459381142,-1,23,-26,5,4,0,1,0
1448711459382643,-1,6,4,0,-1,-1,-2,0
1448711459382643,-5,-6,17,0,-3,-2,-3,-2
1448711459395641,4,4,-6,0,1,5,-3,2
1448711459395641,-5,-7,4,-7,-5,-4,3,-4
1448711459402146,2,3,0,4,8,1,-2,-4
1448711459402146,2,-10,-12,-3,-7,-6,-3,0
1448711459418157,-1,-10,-7,-10,-5,-6,-4,-1
1448711459418157,-2,-3,16,6,1,-2,0,-1
1448711459424661,-5,-7,-14,-7,-5,-3,-1,0
1448711459424661,-1,-2,7,3,0,1,-3,-3
1448711459441173,1,6,3,11,4,-2,1,0
1448711459441173,2,-2,6,-5,-4,1,-3,-1
1448711459442674,0,10,3,1,0,0,2,0
1448711459442674,-6,-14,-22,-3,-1,-2,-1,-2
1448711459456183,-1,-6,-7,-3,-3,0,-3,-1
1448711459456183,-3,-3,1,0,0,-5,-3,-1
1448711459462187,1,-1,0,0,1,1,2,-1
1448711459462187,-1,-2,4,-1,-1,-2,-3,0
1448711459478198,-3,5,32,1,0,6,1,-4
1448711459478198,2,-5,-29,-1,1,0,0,3
1448711459484703,1,-11,-4,0,-2,-3,-2,1
1448711459484703,-1,7,-5,-4,-1,0,1,-1
1448711459501216,4,0,-14,-3,-5,-5,-3,2
1448711459501216,-3,22,25,-3,-6,-6,-3,-1
1448711459502716,1,20,6,3,0,2,1,0
1448711459502716,-1,9,-1,4,5,2,-1,1
1448711459515225,-5,4,14,5,0,-2,-3,-3
1448711459515225,-4,-11,-7,-9,-4,-3,-1,-3
1448711459522231,-6,-23,-30,-4,-4,-4,-4,-2
1448711459522231,1,-4,8,-10,-7,-1,-3,-2
1448711459546246,1,6,-4,4,-2,-2,-1,1
1448711459546246,3,0,6,10,11,7,2,3
1448711459547748,-1,4,-4,-2,0,-2,0,0
1448711459547748,-1,-16,0,-4,-1,1,-2,-1
1448711459568763,-4,-7,-6,-9,-7,-2,-3,-2
1448711459568763,-1,0,11,1,2,-2,-2,-1
1448711459570263,3,8,5,6,1,4,3,1
1448711459570263,-2,-8,1,-2,2,0,-1,-1
1448711459583773,3,3,-8,-4,0,-5,-5,1
1448711459583773,-3,-12,-2,-5,-1,0,4,-3
1448711459585274,-4,4,9,2,1,-1,1,-1
1448711459585274,7,34,16,4,-2,0,4,3
1448711459606289,10,15,-10,-2,2,6,5,6
1448711459606289,-3,0,11,-3,-1,-11,-8,-3
1448711459607790,1,1,-10,-1,1,1,-5,-4
1448711459607790,-8,-8,-1,-4,0,1,3,-5
1448711459629318,5,-7,2,-2,-6,1,0,4
1448711459629318,-4,-2,-5,2,4,5,5,2
1448711459631308,-3,-3,-5,0,2,-1,-3,-1
1448711459631308,-4,-7,11,2,0,-4,-7,-4
1448711459642327,-4,0,-7,2,1,-2,-3,-4
1448711459642327,4,-1,7,-17,-9,-2,-3,-1
1448711459651321,2,2,-14,10,2,1,3,3
1448711459651321,0,-12,2,1,-2,1,1,4
1448711459666333,-12,-5,-1,6,3,-1,-1,-7
1448711459666333,1,-4,-16,0,-1,3,-2,-2
1448711459667834,4,13,19,-8,-8,-3,-1,0
1448711459667834,0,3,6,-13,-2,-2,0,-1
1448711459688848,-2,-4,-19,2,2,-2,-1,3
1448711459688848,6,1,9,14,-2,1,5,3
1448711459690350,3,-11,-13,-14,-3,1,10,8
1448711459690350,-1,-2,-8,-2,-1,1,-3,0
1448711459702858,-7,-1,3,-13,-4,-2,-2,-10
1448711459702858,-2,0,-10,-1,-2,-2,-15,-6
1448711459709863,-3,3,8,-5,-5,-5,2,3
1448711459709863,-17,-8,-2,9,1,-7,-18,-19
1448711459725874,3,-10,-7,-7,1,-6,-6,-2
1448711459725874,3,3,0,-2,-3,0,-3,-6
1448711459727876,1,-11,5,8,-1,-3,5,3
1448711459727876,7,2,-9,-5,4,5,12,10
1448711459748390,-3,1,17,-1,-2,3,7,2
1448711459748390,-1,-19,-14,-3,-2,0,-6,-4
1448711459750392,2,4,6,-1,3,2,-5,-4
1448711459750392,0,8,-32,3,2,-2,1,3
1448711459762900,0,-1,-9,-7,-3,0,1,4
1448711459762900,-1,6,7,-12,-3,-1,5,3
1448711459769906,-1,7,9,7,-4,-1,-2,-2
1448711459769906,-2,-3,7,2,-3,-2,-3,-1
1448711459793423,6,24,10,16,5,0,-1,-1
1448711459793423,-9,-4,-6,3,-3,-2,1,-1
1448711459795924,2,4,-8,0,2,3,8,7
1448711459795924,-3,7,8,-7,-2,4,22,11
1448711459808433,4,-13,9,6,-8,-9,-23,-14
1448711459808433,-1,-9,-19,-9,-2,-4,-22,-15
1448711459810434,-7,-36,-23,-4,3,-2,-15,-14
1448711459810434,-3,12,9,-1,-4,-3,-8,-5
1448711459822943,2,-4,-2,0,1,-1,9,12
1448711459822943,2,8,16,10,-5,3,11,8
1448711459837454,-15,-6,-9,-16,0,-3,0,-6
1448711459837454,-3,-1,4,29,5,-1,-9,-11
1448711459845960,-8,-9,3,-10,-7,-4,-2,-2
1448711459845960,12,3,4,-6,-2,0,6,6
1448711459847961,1,15,-1,1,6,2,7,8
1448711459847961,9,-22,-19,9,4,4,8,6
1448711459868474,-12,-8,2,-12,-2,1,-3,-6
1448711459868474,-7,8,15,-1,-13,-8,-9,-3
1448711459870476,23,11,1,25,8,6,4,8
1448711459870476,21,14,14,-11,-5,4,23,21
1448711459890991,-9,-9,-27,-15,3,-1,-13,-18
1448711459890991,-35,6,2,6,-3,-3,7,-7
1448711459892992,5,0,24,7,-1,-4,-21,-11
1448711459892992,-7,-3,-13,-21,-6,-6,-19,-12
1448711459906001,0,-2,-6,13,5,4,9,4
1448711459906001,7,14,12,-4,1,-3,-12,-11
1448711459908504,-32,-35,-18,-6,-13,-11,-5,-9
1448711459908504,15,8,1,3,3,2,16,14
1448711459928517,-17,-5,0,-16,-11,-6,-14,-13
1448711459928517,2,-27,-16,27,12,-6,-8,0
1448711459930031,12,14,10,-32,-20,-4,1,-2
1448711459930031,-12,-55,-3,12,-5,-3,1,0
1448711459942026,-5,42,14,32,22,17,21,10
1448711459942026,5,8,-35,-34,-12,-8,10,9
1448711459951033,10,-10,12,27,-3,7,8,11
1448711459951033,11,-1,-11,-24,7,2,9,8
1448711459966043,11,-3,-4,13,5,2,-3,1
1448711459966043,21,6,4,27,16,13,13,8
1448711459967544,-8,-21,1,-24,-25,-11,1,2
1448711459967544,-40,12,-1,-6,-1,-9,-21,-20
1448711459988561,-5,-19,6,-14,-1,-8,-19,-6
1448711459988561,-13,-6,-4,11,-4,-8,-29,-27
1448711459990062,-2,-7,-8,-25,-4,4,3,-7
1448711459990062,25,16,29,11,1,6,26,14
1448711460003071,-7,22,-5,18,1,-3,-3,0
1448711460003071,-6,5,-5,-33,-15,-8,-3,5
1448711460009575,-21,-5,-22,-10,1,1,-16,-19
1448711460009575,-26,17,36,16,-1,-8,-40,-28
1448711460026085,21,26,-14,-7,-8,8,32,27
1448711460026085,10,-5,11,7,9,6,4,-1
1448711460032090,6,-18,-11,-23,-2,-2,-1,0
1448711460032090,2,-8,-7,13,15,3,16,8
1448711460048603,16,16,17,-11,15,7,26,23
1448711460048603,28,-54,-54,12,-9,4,39,28
1448711460050104,2,17,16,39,23,-5,-2,17
1448711460050104,27,20,44,-10,-28,-2,-4,5
1448711460062613,-99,-48,-49,-46,0,-17,-58,-64
1448711460062613,13,70,9,6,15,3,-27,-21
1448711460071118,-42,-8,22,38,14,3,-2,-26
1448711460071118,-30,-24,-33,-4,-16,-15,-30,-23
1448711460086129,23,36,29,16,-20,-2,17,25
1448711460086129,6,4,-4,-22,1,3,23,17
1448711460087631,32,0,6,-8,-9,4,30,25
1448711460087631,32,25,17,-16,4,3,12,17
1448711460108645,-27,-53,-29,-18,-14,-13,-42,-36
1448711460108645,5,-40,-10,37,14,-6,-25,-14
1448711460110147,24,31,5,-7,-11,-1,0,3
1448711460110147,54,11,4,-10,14,13,38,36
1448711460122155,13,1,46,-8,-24,9,67,58
1448711460122155,-41,-47,-17,3,15,-5,-39,-42
1448711460131161,31,17,7,32,3,0,9,5
1448711460131161,-9,-2,-43,6,2,3,18,16
1448711460146172,-23,-19,-24,-24,9,-12,-40,-33
1448711460146172,-15,42,48,-6,-5,-7,-38,-26
1448711460147673,-8,30,-24,7,4,-5,-51,-41
1448711460147673,17,16,62,20,-6,1,18,24
1448711460168688,69,26,3,18,11,27,84,78
1448711460168688,-45,11,21,10,-26,-17,-8,-21
1448711460170190,17,-36,-82,-56,5,-7,-18,-8
1448711460170190,-32,2,-9,-21,-16,5,6,-17
1448711460182196,-27,17,-22,-11,20,5,5,-1
1448711460182196,-9,6,76,22,-16,-1,1,11
1448711460191203,-41,-35,17,-21,-3,6,22,23
1448711460191203,-40,-16,-67,23,13,-9,-25,-20
1448711460206213,30,9,5,7,-9,-5,-18,-19
1448711460206213,13,-42,-20,-44,-16,-16,-49,-41
1448711460208715,7,39,-9,-2,5,-7,-48,-46
1448711460208715,82,-21,-8,-1,-17,8,27,26
1448711460228729,-37,-53,6,28,43,22,49,31
1448711460228729,8,57,-16,-12,18,6,4,20
1448711460230231,-24,-3,70,23,-40,-13,31,29
1448711460230231,-31,35,-15,-23,0,16,29,8
1448711460242238,-17,-35,-2,17,-3,-18,-32,-30
1448711460242238,42,-3,-52,-6,3,11,-14,-12
1448711460251245,-84,-65,34,13,-19,-27,-66,-64
1448711460251245,-42,3,9,15,12,-26,-89,-67
1448711460266256,44,79,39,28,-9,11,44,31
1448711460266256,-29,-1,-29,-16,25,21,53,48
1448711460267757,46,-33,-9,7,-4,4,27,38
1448711460267757,56,19,-29,-41,-15,18,63,54
1448711460289292,-6,-1,41,27,-9,10,38,38
1448711460289292,-39,-32,-29,-5,-15,-40,-78,-86
1448711460290786,47,56,-69,-76,-34,-27,-62,-61
1448711460290786,-50,-53,14,6,54,13,-5,-24
1448711460302281,30,-38,-48,15,-5,10,54,34
1448711460302281,21,48,-11,-49,-30,25,127,109
1448711460311287,19,30,26,44,13,-5,-27,9
1448711460311287,-51,-51,-14,17,53,-7,-98,-72
1448711460327799,16,26,89,1,-57,-23,-77,-81
1448711460327799,19,6,-58,31,74,18,-12,-13
1448711460329300,-57,23,-40,-15,1,-12,-9,-11
1448711460329300,9,-85,-6,-17,-17,-5,52,59
1448711460348814,-62,-24,80,-42,-50,-6,-3,-29
1448711460348814,19,25,-42,16,23,13,34,18
1448711460350315,53,39,-11,-32,0,4,21,23
1448711460350315,34,44,32,15,3,-16,-70,-26
1448711460362324,13,29,-11,-14,5,-15,-63,-45
1448711460362324,-14,-10,19,-103,-72,-8,22,27
1448711460371330,11,-34,47,127,62,41,50,25
1448711460371330,-53,45,-4,17,6,-2,-11,-33
1448711460386340,35,-63,-128,-106,11,-22,-34,-8
1448711460386340,19,24,127,61,-23,2,17,26
1448711460387842,-27,-73,-82,17,75,39,85,67
1448711460387842,42,71,84,54,-38,-7,48,31
1448711460408857,-60,35,86,117,-11,-18,-95,-65
1448711460408857,-49,-63,-69,3,47,-8,-97,-96
1448711460410358,2,8,1,-45,-24,-14,-5,-12
1448711460410358,1,-68,4,-41,-33,8,34,24
1448711460422367,83,79,-14,23,26,39,112,93
1448711460422367,94,-10,55,-2,-23,0,83,86
1448711460431373,-28,22,38,6,-27,-38,-118,-117
1448711460431373,-73,-3,-15,3,-2,-5,-16,-32
1448711460446382,-21,-45,-35,16,29,24,70,44
1448711460446382,74,2,43,36,-23,35,80,73
1448711460447884,-77,0,-8,-60,3,-28,-62,-51
1448711460447884,-24,-8,-36,7,-68,-45,-59,-56
1448711460468899,-62,-43,-106,-68,11,-25,-100,-80
1448711460468899,21,41,68,83,33,-1,-18,-20
1448711460470418,96,50,47,93,56,51,127,115
1448711460470418,13,70,88,28,-63,22,78,66
1448711460490928,37,3,-73,-85,36,11,36,21
1448711460490928,-48,-21,-60,13,7,-52,-119,-116
1448711460492916,45,7,-24,-8,-21,-1,7,1
1448711460492916,-5,55,6,-42,37,33,82,65
1448711460505925,-29,-63,19,9,-27,8,35,13
1448711460505925,-13,-23,-1,-78,-73,-51,-88,-80
1448711460507941,-20,-32,42,21,35,19,45,35
1448711460507941,-43,-39,-55,-58,-2,-2,51,39
1448711460528442,8,-38,100,-18,-38,-15,-11,3
1448711460528442,-63,-61,-122,24,83,23,-19,-11
1448711460530444,-4,-25,25,50,-29,-34,-61,-32
1448711460530444,64,35,39,-35,-55,-22,-65,-41
1448711460551458,50,0,24,25,-14,14,52,42
1448711460551458,-46,12,-70,-29,28,-3,0,18
1448711460552959,-64,-49,12,3,60,15,0,-17
1448711460552959,45,18,-20,123,50,7,4,5
1448711460565969,15,1,12,80,40,-6,-12,-2
1448711460565969,-2,-50,42,-78,-60,-12,17,6
1448711460567970,-19,-35,-88,-109,-37,-18,-37,-12
1448711460567970,22,-32,40,-13,-10,-13,-41,-32
1448711460588484,93,62,-27,54,-20,-4,64,73
1448711460588484,-89,43,-10,51,7,35,89,80
1448711460590485,-80,44,85,-85,-128,-63,-73,-77
1448711460590485,-57,-114,-105,11,96,15,-19,-52
1448711460610999,90,119,116,-10,17,23,62,60
1448711460610999,-51,-20,0,70,-28,-22,-42,-54
1448711460613014,-17,-7,-62,39,23,1,-38,-21
1448711460613014,72,120,89,-24,-6,8,49,49
1448711460625522,-128,-31,31,-67,-4,-16,-72,-87
1448711460625522,79,-46,18,31,0,0,-5,21
1448711460632527,-20,-57,-30,53,17,14,26,16
1448711460632527,20,-23,-29,57,1,-11,-27,-16
1448711460648539,89,66,41,78,13,29,36,46
1448711460648539,-14,23,11,-27,52,-5,-44,-41
1448711460650527,86,45,20,-2,-3,30,115,102
1448711460650527,21,-19,-15,-32,-19,11,-39,-22
1448711460671055,-103,-13,-3,-120,-59,-30,-42,-31
1448711460671055,56,-72,25,-127,-46,-30,-71,-52
1448711460672556,-61,-14,-25,106,59,13,19,-20
1448711460672556,-75,-40,-33,-6,-7,-4,-18,-42
1448711460685553,96,-2,-16,-12,-40,-29,-47,-28
1448711460685553,-66,31,50,-7,-11,14,32,13
1448711460700063,-24,56,3,-42,13,64,127,84
1448711460700063,-66,-83,-77,-102,-25,-49,-80,-41
1448711460709582,22,-22,-65,-3,-27,-36,-85,-62
1448711460709582,18,-14,5,41,62,34,80,61
1448711460711083,81,51,64,-40,-27,2,1,12
1448711460711083,42,74,8,94,63,36,101,72
1448711460731097,49,-25,-26,52,45,14,32,39
1448711460731097,-38,-35,-1,-16,-3,-25,-59,-47
1448711460732586,-79,-31,47,-88,-56,-17,7,10
1448711460732586,13,4,14,33,-18,-11,-25,-19
1448711460744595,10,-23,17,5,2,1,59,51
1448711460744595,-25,17,2,-46,-57,-10,-31,-44
1448711460753602,20,-5,-9,-32,-31,-38,-82,-47
1448711460753602,103,66,48,-6,-4,9,56,90
1448711460768612,-12,42,-55,15,43,44,85,47
1448711460768612,-88,26,50,65,-18,11,28,2
1448711460770113,58,6,29,6,-5,-17,-60,-54
1448711460770113,25,39,-43,69,43,5,11,16
1448711460791139,-20,2,-35,-23,55,18,-1,14
1448711460791139,127,87,20,71,-2,1,-6,9
1448711460792628,4,16,36,-22,1,10,36,27
1448711460792628,-47,32,24,-39,-37,8,35,39
1448711460804638,-117,-113,-58,21,3,-43,-124,-128
1448711460804638,40,-1,-23,-53,-20,-17,-47,-17
1448711460813644,30,50,-12,33,6,39,90,98
1448711460813644,25,15,10,-50,-37,-16,-60,-69
1448711460829155,-31,21,2,-47,-11,-34,-61,-30
1448711460829155,-15,-61,-55,56,35,10,78,60
1448711460830656,60,-2,-34,-21,-21,-5,2,2
1448711460830656,48,43,12,-48,-27,10,58,34
1448711460851170,-98,58,88,5,-53,-10,-45,-42
1448711460851170,21,-56,-48,69,95,50,58,39
1448711460852671,-52,-39,13,17,-12,-20,-38,-12
1448711460852671,-51,-66,20,-54,22,5,-23,-44
1448711460865681,121,-8,-20,44,-19,-10,-21,0
1448711460865681,-15,112,41,-86,-44,8,63,47
1448711460872185,57,-37,-81,64,63,21,56,39
1448711460872185,-111,-48,22,36,41,6,-34,-39
1448711460888696,49,34,16,19,16,24,27,18
1448711460888696,-81,-101,-16,-68,-80,-70,-58,-46
1448711460890198,2,-34,-23,-92,-42,-20,49,34
1448711460890198,-49,-43,-44,-32,-60,-44,-86,-79
1448711460918717,-6,-16,-4,1,14,24,53,36
1448711460918717,76,-10,28,16,9,16,24,12
1448711460920218,81,92,30,70,4,-3,-10,-7
1448711460920218,-73,-8,-10,-23,-12,-9,-14,3
1448711460925222,-26,26,35,27,-8,-3,-6,8
1448711460925222,12,91,92,65,70,32,20,18
1448711460932227,-21,33,-23,24,79,20,0,-1
1448711460932227,82,68,-47,6,-18,-7,26,35
1448711460948739,-35,31,17,-81,-38,-9,-19,-17
1448711460948739,30,20,24,26,-30,-10,-7,0
1448711460950252,83,10,53,8,-12,12,35,56
1448711460950252,20,-14,-51,-9,23,33,40,-7
1448711460971768,-100,-119,-37,-22,18,-13,-22,-34
1448711460971768,-54,-53,-18,-7,-9,-21,-30,-36
1448711460977272,45,-22,-14,-15,-9,-17,-64,-38
1448711460977272,-38,-66,12,-21,-42,-24,-3,-10
1448711460984777,19,-24,-3,-29,-41,-23,-53,-31
1448711460984777,93,36,-12,-26,24,27,73,84
1448711460993771,-68,1,-15,27,19,14,-32,-41
1448711460993771,-8,-49,18,-6,13,-15,-26,-19
1448711461008793,-24,-14,-57,-14,-13,12,56,30
1448711461008793,-25,-4,55,75,19,6,4,5
1448711461010295,5,22,-70,-60,-31,-13,-7,-1
1448711461010295,43,1,22,26,69,22,34,39
1448711461031309,-8,-5,21,29,-22,-13,-11,-11
1448711461031309,7,-7,-60,-21,18,-2,-12,5
1448711461032810,-31,80,48,8,-30,-9,-2,-11
1448711461032810,-49,-46,-9,-53,0,5,-6,-11
1448711461044819,30,14,-2,31,26,12,28,27
1448711461044819,14,47,9,-20,-28,-3,-28,-18
1448711461053812,-66,-64,9,-1,11,19,15,-13
1448711461053812,62,26,1,9,-4,-4,23,48
1448711461068823,-8,33,11,-14,-7,-26,-56,-40
1448711461068823,-65,-33,-23,-36,-35,-30,-67,-84
1448711461070338,-56,-82,-17,-13,-4,-29,-37,-43
1448711461070338,-22,-4,14,3,-19,-15,-12,-24
1448711461091340,56,10,3,14,29,26,45,62
1448711461091340,37,40,16,-12,-25,-1,27,25
1448711461092842,-18,-8,-49,-16,34,22,-14,-12
1448711461092842,41,45,25,51,29,7,9,19
1448711461104850,16,-26,-10,31,51,17,25,14
1448711461104850,-17,8,-13,-4,5,9,8,8
1448711461121861,-10,-18,11,-25,-32,-17,-15,-9
1448711461121861,5,6,6,-29,-32,-10,-4,8
1448711461128879,-15,-69,-22,-34,-22,-10,-15,-19
1448711461128879,-15,-10,4,-1,-7,1,10,1
1448711461130368,60,27,26,35,19,10,15,22
1448711461130368,-6,23,-6,19,23,18,28,31
1448711461151382,-53,41,1,-2,-8,-9,-13,-33
1448711461151382,-41,-37,-9,-23,-20,-16,-28,-30
1448711461152883,-16,-16,1,-19,-23,-13,-22,-9
1448711461152883,3,-11,4,11,-1,0,-2,-9
1448711461164891,4,15,26,-20,-7,-3,-26,-13
1448711461164891,37,16,-45,16,7,-12,18,21
1448711461173898,8,17,-9,-27,16,2,4,0
1448711461173898,-20,-6,6,77,28,6,-3,-5
1448711461187908,-9,18,3,35,13,12,38,30
1448711461187908,9,21,14,-21,6,19,19,15
1448711461188909,-13,1,9,23,-8,-8,-12,-6
1448711461188909,12,6,-10,-32,-17,-9,-12,-5
1448711461210424,19,1,-1,-9,-1,3,-1,-5
1448711461210424,0,-20,-3,2,-8,-1,-2,3
1448711461211425,2,-25,3,-1,-5,4,6,2
1448711461211425,5,8,5,-2,-1,-9,-8,-7
1448711461232939,14,8,-7,0,1,-10,-5,-7
1448711461232939,31,4,-1,-20,-12,9,0,18
1448711461233940,28,-23,3,4,-6,6,27,21
1448711461233940,-99,14,4,-25,-7,-10,-19,-21
1448711461247951,-39,-88,-29,-16,-16,-16,-30,-47
1448711461247951,-23,0,5,-3,13,-1,-15,-19
1448711461248952,10,-5,-10,48,17,1,-3,-11
1448711461248952,18,22,16,5,-22,-1,3,10
1448711461270467,42,19,-10,-6,14,10,22,26
1448711461270467,4,26,10,20,14,6,11,11
1448711461271468,-16,13,6,-21,-17,-6,-13,-11
1448711461271468,27,-2,-14,5,17,0,-7,2
1448711461292983,-2,17,18,9,5,2,8,14
1448711461292983,5,-4,2,-10,-7,1,6,2
1448711461293983,-17,0,3,8,0,-3,-10,-6
1448711461293983,9,-15,-16,7,-1,-7,-1,-6
1448711461307993,3,9,6,-2,1,10,7,-1
1448711461307993,-6,-9,-8,-6,-3,-11,-13,1
1448711461308992,-12,2,4,-9,-11,-17,-3,-3
1448711461308992,3,-4,2,-10,-10,3,-16,-7
1448711461330508,7,-1,-3,3,0,-5,9,1
1448711461330508,13,11,1,-1,-1,3,16,15
1448711461332022,-26,-8,4,-1,7,6,1,-4
1448711461332022,-6,-12,-5,1,9,2,-11,-13
1448711461353026,-22,-4,-3,-1,-1,-6,-6,-4
1448711461353026,-7,-30,-16,-18,-20,0,9,6
1448711461353526,7,8,16,-20,-6,-1,-2,-1
1448711461353526,9,-8,14,46,29,7,3,-2
1448711461368036,10,10,-3,9,4,-1,0,5
1448711461368036,2,17,8,11,5,-1,8,4
1448711461369037,-6,6,2,-11,-19,-10,-12,-6
1448711461369037,1,-6,2,-34,-34,-4,2,-2
1448711461390551,4,6,-5,10,21,3,-3,3
1448711461390551,0,-5,14,19,20,5,-1,1
1448711461391053,1,-11,-13,-2,2,4,1,0
1448711461391053,-5,-14,4,-4,-6,-2,4,-2
1448711461413068,0,-7,-21,-9,-14,-7,-14,-3
1448711461413068,-7,0,-4,-17,-8,-7,-2,-1
1448711461414569,-3,-1,6,1,0,3,1,-3
1448711461414569,7,-3,-5,-3,-1,-11,-4,-3
1448711461428079,3,-13,8,-2,-1,2,2,-1
1448711461428079,-3,11,3,6,3,-3,3,-1
1448711461428579,1,7,-8,0,-2,1,1,-4
1448711461428579,-1,3,-2,-6,-4,-2,-5,-5
1448711461452596,0,0,6,-3,1,1,-4,0
1448711461452596,0,4,-4,4,1,2,3,3
1448711461458101,0,4,-2,-1,-1,-3,2,-1
1448711461458101,-7,-3,11,-7,0,1,-4,0
1448711461473110,-4,-4,-28,2,0,2,3,2
1448711461473110,0,-6,-8,-1,-6,-2,1,0
1448711461473611,-2,-1,21,-12,-10,-8,-8,-3
1448711461473611,3,-9,-27,-7,3,6,1,0
1448711461488120,1,4,1,8,2,3,0,2
1448711461488120,-2,-1,5,-17,-1,-1,0,-2
1448711461488620,-1,-1,1,22,6,-6,-3,3
1448711461488620,1,3,-8,-5,-6,0,-3,-1
1448711461510649,0,10,31,-11,-4,-3,0,1
1448711461510649,1,2,-14,10,6,3,0,0
1448711461511136,-3,1,-13,-5,1,0,0,0
1448711461511136,-2,0,4,-8,-6,-3,-2,-3
1448711461533166,1,2,-7,-3,-7,-2,1,0
1448711461533166,1,2,13,-2,-3,2,3,1
1448711461533665,0,7,-1,2,2,3,2,0
